Integration time [ms]:   4.000
Averaging Nr. [scans]: 50
Smoothing Nr. [pixels]: 0
Data measured with spectrometer [name]: 2010165U1
Wave    Sample    Dark      Reference Scope
[nm]    [counts]  [counts]  [counts] 

407.505   333.835   338.547   340.527
407.651   288.070   290.720   291.085
407.797   323.584   326.415   329.981
407.944   307.631   303.817   306.196
408.090   317.415   322.371   324.171
408.236   286.456   276.962   281.700
408.382   332.424   338.340   342.653
408.529   283.279   281.361   285.392
408.675   360.560   362.261   362.437
408.821   293.740   297.065   297.080
408.968   383.361   384.297   380.953
409.114   274.365   273.688   274.834
409.260   348.965   343.548   344.074
409.406   286.290   293.400   287.545
409.553   338.154   338.592   337.755
409.699   262.075   263.262   265.335
409.845   358.258   357.323   356.636
409.991   260.900   262.059   262.098
410.137   352.296   353.000   356.761
410.284   286.293   288.837   290.663
410.430   352.905   351.535   353.906
410.576   280.053   281.923   284.245
410.722   336.471   341.300   339.330
410.868   296.585   297.509   294.924
411.015   384.135   392.304   393.059
411.161   278.360   277.271   283.162
411.307   380.790   378.432   384.649
411.453   297.994   299.955   301.769
411.599   365.330   362.482   363.224
411.746   315.059   317.323   317.496
411.892   364.930   368.383   369.553
412.038   309.009   298.097   308.216
412.184   558.555   395.224   446.839
412.330   527.369   354.437   411.076
412.476   584.299   410.147   465.434
412.622   533.473   357.818   416.692
412.769   591.914   415.085   478.204
412.915   535.712   356.292   416.535
413.061   593.615   391.499   451.507
413.207   572.187   374.404   429.458
413.353   630.695   413.222   477.095
413.499   638.487   408.892   478.124
413.645   698.039   453.016   528.409
413.791   636.492   388.304   462.629
413.938   735.358   471.050   555.722
414.084   670.163   399.050   480.194
414.230   701.753   421.064   509.534
414.376   697.704   419.818   510.075
414.522   709.259   422.779   516.913
414.668   697.224   392.103   494.447
414.814   783.435   480.972   581.720
414.960   702.823   380.336   480.196
415.106   806.888   457.199   567.710
415.252   766.862   401.107   519.565
415.398   839.419   449.565   574.115
415.544   856.593   463.517   586.123
415.690   870.303   475.418   600.049
415.836   848.593   433.185   567.458
415.982   897.089   489.792   620.664
416.128   845.347   424.246   561.207
416.274   964.005   527.013   668.987
416.420   869.669   430.950   581.390
416.566   952.923   490.365   639.221
416.712   937.559   459.517   618.679
416.858   979.624   474.579   638.184
417.004   962.224   438.698   599.075
417.150  1055.515   516.465   678.749
417.296   996.368   432.284   606.903
417.442  1072.154   500.443   677.790
417.588  1039.848   466.364   646.643
417.734  1074.669   508.222   687.349
417.880  1061.663   492.734   680.357
418.026  1119.904   540.413   725.882
418.172  1089.780   496.149   687.153
418.318  1161.867   547.879   749.536
418.464  1095.925   459.649   663.184
418.610  1223.768   563.649   779.915
418.756  1129.256   455.559   667.153
418.902  1243.823   542.402   760.438
419.048  1208.599   488.329   703.358
419.194  1261.900   539.553   762.976
419.340  1210.809   492.206   718.062
419.486  1278.675   551.515   790.903
419.631  1199.793   492.827   721.508
419.777  1311.078   594.624   839.780
419.923  1184.708   462.365   709.272
420.069  1304.319   556.961   801.132
420.215  1248.094   477.790   730.556
420.361  1401.931   582.270   849.885
420.507  1346.380   510.422   771.861
420.653  1374.493   510.567   772.268
420.799  1347.699   483.607   744.114
420.944  1377.023   508.879   788.159
421.090  1316.734   465.813   737.364
421.236  1403.470   553.195   839.572
421.382  1347.273   503.628   790.217
421.528  1442.017   601.418   891.718
421.674  1373.594   515.985   803.604
421.819  1468.442   572.107   865.165
421.965  1419.283   516.786   819.790
422.111  1516.474   562.938   877.037
422.257  1472.613   499.798   805.672
422.403  1529.825   547.137   855.890
422.549  1476.388   472.467   786.857
422.694  1537.678   548.416   861.864
422.840  1492.669   508.577   825.096
422.986  1512.642   540.131   857.938
423.132  1463.208   520.629   836.215
423.278  1503.578   552.282   873.386
423.423  1440.829   486.568   814.781
423.569  1534.885   552.421   884.383
423.715  1489.174   497.391   813.386
423.861  1617.555   563.654   903.294
424.006  1580.184   509.330   844.539
424.152  1681.600   581.459   920.838
424.298  1632.324   532.549   884.249
424.444  1654.785   561.828   910.334
424.589  1579.364   508.040   857.253
424.735  1615.350   569.231   919.559
424.881  1491.518   472.472   827.961
425.027  1565.944   552.267   905.060
425.172  1519.510   506.827   863.976
425.318  1607.264   569.433   928.002
425.464  1600.005   548.254   905.676
425.609  1660.195   545.384   913.159
425.755  1642.680   521.460   876.927
425.901  1721.810   590.865   950.977
426.047  1662.509   525.927   886.591
426.192  1708.198   576.614   932.286
426.338  1568.164   474.573   847.502
426.484  1624.213   547.388   917.517
426.629  1537.919   485.885   854.475
426.775  1573.099   539.718   906.403
426.921  1561.060   525.782   890.001
427.066  1625.388   569.595   948.237
427.212  1549.044   484.083   857.987
427.357  1681.458   586.669   955.593
427.503  1620.253   514.273   882.339
427.649  1733.603   585.469   957.704
427.794  1666.469   533.925   908.192
427.940  1711.559   588.094   961.940
428.086  1610.968   506.176   876.782
428.231  1654.344   585.571   949.228
428.377  1533.922   502.666   880.376
428.522  1612.428   593.112   967.939
428.668  1508.573   498.489   868.787
428.814  1595.597   581.492   951.507
428.959  1553.697   525.372   887.047
429.105  1634.708   569.235   941.278
429.250  1599.899   511.678   887.223
429.396  1672.964   565.516   939.481
429.542  1613.758   502.537   875.454
429.687  1679.498   571.091   936.892
429.833  1564.153   464.933   846.799
429.978  1638.328   574.174   946.288
430.124  1532.511   520.190   891.424
430.269  1576.614   574.538   946.817
430.415  1524.429   538.824   911.248
430.560  1516.584   533.907   903.040
430.706  1483.019   494.289   859.238
430.852  1582.564   552.838   918.615
430.997  1544.543   485.535   853.686
431.143  1627.008   542.398   917.681
431.288  1581.869   485.242   854.309
431.434  1652.178   551.870   930.402
431.579  1586.570   503.712   869.369
431.725  1632.604   566.577   934.885
431.870  1531.873   498.107   872.128
432.016  1563.680   568.038   935.628
432.161  1456.325   464.812   840.018
432.307  1526.450   552.071   931.519
432.452  1461.953   470.592   847.810
432.597  1533.158   527.736   900.904
432.743  1558.575   518.627   893.068
432.888  1635.555   550.919   928.167
433.034  1571.444   460.489   846.369
433.179  1694.364   571.157   952.065
433.325  1630.363   517.726   899.970
433.470  1629.035   524.219   908.147
433.616  1556.935   488.100   868.056
433.761  1614.829   564.397   954.296
433.906  1499.668   470.723   857.153
434.052  1572.309   565.614   954.683
434.197  1504.554   495.531   883.886
434.343  1598.503   561.301   955.528
434.488  1576.076   505.327   900.809
434.634  1656.098   546.374   935.666
434.779  1642.783   500.646   898.090
434.924  1727.749   551.964   952.528
435.070  1676.419   497.234   904.840
435.215  1716.443   549.628   957.475
435.360  1652.754   501.080   906.671
435.506  1706.051   573.896   992.267
435.651  1649.360   547.185   964.460
435.797  1585.647   511.910   937.780
435.942  1552.457   469.273   899.696
436.087  1651.073   559.888   989.657
436.233  1597.198   476.594   908.766
436.378  1716.264   555.810   986.639
436.523  1720.844   519.384   952.157
436.669  1821.445   568.020  1009.398
436.814  1786.464   518.782   950.958
436.959  1830.778   551.215  1002.995
437.105  1842.939   557.553  1008.851
437.250  1788.178   539.952   989.141
437.395  1725.550   511.953   966.818
437.540  1740.018   561.945  1015.230
437.686  1652.343   498.658   962.989
437.831  1738.138   581.026  1050.539
437.976  1718.154   523.687   992.182
438.122  1794.564   558.909  1036.589
438.267  1767.964   491.622   972.218
438.412  1931.213   587.473  1073.459
438.557  1881.879   493.190   995.487
438.703  1956.254   554.355  1049.909
438.848  1923.439   511.574  1016.780
438.993  1998.739   603.423  1112.156
439.138  1876.094   493.830  1016.756
439.284  1931.978   581.790  1106.622
439.429  1864.111   550.920  1078.711
439.574  1908.189   601.813  1136.233
439.719  1885.923   569.351  1104.423
439.865  1939.919   597.773  1136.791
440.010  1921.974   526.141  1063.020
440.155  2067.790   609.487  1163.516
440.300  2058.830   553.611  1108.519
440.445  2165.228   592.717  1156.831
440.591  2154.573   567.643  1140.665
440.736  2226.804   621.874  1199.211
440.881  2144.919   579.111  1146.357
441.026  2149.263   600.930  1188.834
441.171  2057.788   525.868  1128.526
441.316  2100.624   597.442  1196.698
441.462  2059.599   577.951  1183.397
441.607  2151.665   650.664  1267.122
441.752  2113.650   574.312  1200.509
441.897  2226.063   627.134  1267.837
442.042  2264.138   587.984  1229.000
442.187  2354.415   608.468  1254.272
442.332  2313.054   515.381  1172.140
442.478  2455.445   625.726  1287.676
442.623  2443.989   611.582  1282.069
442.768  2498.348   672.154  1340.488
442.913  2365.948   570.651  1265.589
443.058  2426.580   658.064  1346.090
443.203  2356.509   630.237  1332.236
443.348  2350.480   615.708  1319.963
443.493  2374.493   627.561  1346.346
443.638  2443.869   653.347  1385.011
443.784  2431.360   584.313  1312.016
443.929  2581.291   651.285  1404.602
444.074  2679.593   666.948  1417.757
444.219  2791.542   723.596  1491.711
444.364  2794.408   675.147  1457.117
444.509  2804.059   657.093  1449.551
444.654  2750.327   608.610  1408.060
444.799  2796.998   650.320  1455.808
444.944  2719.040   642.195  1455.715
445.089  2739.229   661.060  1497.165
445.234  2699.948   651.707  1487.897
445.379  2749.618   685.150  1533.542
445.524  2724.925   611.684  1468.702
445.669  2818.138   647.491  1526.652
445.814  2878.429   620.814  1507.263
445.959  3014.178   660.161  1559.797
446.104  3095.249   676.047  1586.591
446.249  3179.355   660.151  1587.631
446.394  3175.146   658.984  1588.636
446.539  3235.524   685.169  1631.129
446.684  3156.439   618.887  1580.854
446.829  3205.092   699.679  1662.527
446.974  3123.823   655.133  1644.907
447.119  3185.739   716.737  1718.499
447.264  3093.228   642.942  1648.224
447.409  3169.458   679.229  1708.353
447.554  3214.775   664.504  1717.379
447.699  3308.718   673.026  1733.139
447.844  3357.889   641.876  1712.067
447.989  3574.674   729.672  1819.115
448.134  3600.935   682.491  1775.071
448.279  3745.073   734.522  1858.375
448.424  3762.234   694.467  1834.462
448.568  3770.753   718.239  1854.461
448.713  3710.599   667.113  1840.291
448.858  3754.444   755.667  1919.320
449.003  3657.543   674.851  1887.043
449.148  3691.840   728.373  1957.236
449.293  3689.393   733.745  1969.378
449.438  3812.428   783.325  2032.332
449.583  3765.229   679.020  1955.320
449.728  3991.339   780.025  2070.515
449.872  4020.569   687.377  1994.636
450.017  4236.643   769.783  2091.682
450.162  4251.813   684.277  2027.243
450.307  4456.734   806.713  2161.204
450.452  4417.509   709.438  2089.026
450.597  4535.939   803.219  2212.713
450.742  4408.458   741.293  2148.956
450.886  4405.453   760.617  2204.762
451.031  4351.154   762.233  2233.824
451.176  4407.433   812.872  2306.730
451.321  4331.188   724.338  2229.141
451.466  4500.488   793.830  2334.205
451.611  4523.415   727.073  2286.604
451.755  4802.354   819.949  2413.507
451.900  4878.760   762.474  2368.845
452.045  5101.033   831.740  2465.516
452.190  5153.624   746.252  2399.012
452.334  5339.074   815.227  2489.822
452.479  5384.742   825.267  2526.365
452.624  5427.589   862.557  2607.316
452.769  5254.183   786.259  2518.199
452.914  5304.169   857.447  2633.751
453.058  5190.916   810.842  2619.675
453.203  5291.478   893.076  2729.125
453.348  5244.250   849.184  2699.168
453.493  5399.918   872.203  2771.056
453.637  5464.700   806.622  2734.461
453.782  5732.068   871.300  2815.020
453.927  5900.999   855.638  2839.283
454.071  6181.559   904.019  2911.613
454.216  6262.810   865.127  2896.536
454.361  6467.218   942.621  2997.097
454.506  6471.158   921.569  2997.033
454.650  6541.099   944.931  3068.977
454.795  6379.713   908.846  3042.848
454.940  6413.769   964.089  3150.401
455.084  6195.603   868.721  3069.828
455.229  6280.013   941.953  3197.719
455.374  6235.984   906.473  3178.882
455.518  6431.318   964.761  3282.237
455.663  6578.094   948.231  3288.226
455.808  6866.480   982.839  3363.558
455.952  7013.925   910.077  3320.730
456.097  7307.948   949.657  3384.031
456.242  7483.199   905.110  3394.147
456.386  7715.300  1004.529  3504.893
456.531  7655.793   931.024  3445.934
456.676  7691.169  1003.226  3562.862
456.820  7604.035   977.001  3575.745
456.965  7544.154  1037.128  3660.412
457.109  7319.864   959.370  3624.139
457.254  7358.385  1033.472  3731.298
457.399  7335.815   997.368  3723.457
457.543  7473.363  1036.976  3798.896
457.688  7673.415   981.086  3808.218
457.832  7956.084  1072.319  3884.964
457.977  8194.178  1004.361  3861.457
458.122  8547.594  1080.993  3970.559
458.266  8715.447  1045.731  3934.009
458.411  8911.184  1058.084  3992.317
458.555  8955.618  1017.611  4010.112
458.700  8980.908  1124.250  4122.185
458.844  8716.043  1030.238  4045.829
458.989  8616.348  1076.291  4135.289
459.134  8449.869  1089.044  4170.548
459.278  8386.448  1101.208  4213.066
459.423  8296.084  1060.803  4216.807
459.567  8415.688  1101.136  4276.562
459.712  8605.880  1138.838  4319.548
459.856  8888.003  1116.265  4351.901
460.001  9140.800  1071.749  4302.252
460.145  9540.714  1115.769  4387.227
460.290  9792.470  1138.372  4425.909
460.434  9982.584  1161.556  4463.661
460.579 10017.234  1113.323  4442.770
460.723  9937.145  1147.291  4519.488
460.868  9780.834  1108.942  4476.860
461.012  9611.544  1135.730  4529.599
461.157  9298.688  1109.717  4542.236
461.301  9236.194  1165.484  4623.499
461.446  8977.209  1085.137  4511.056
461.590  9085.358  1176.489  4629.798
461.734  9204.287  1104.503  4604.548
461.879  9566.645  1198.013  4696.647
462.023  9833.015  1142.114  4673.754
462.168 10184.975  1150.572  4691.755
462.312 10375.554  1138.538  4657.952
462.457 10692.578  1199.003  4769.416
462.601 10686.809  1099.406  4676.802
462.745 10791.863  1207.594  4792.017
462.890 10546.143  1144.027  4761.666
463.034 10295.214  1171.543  4753.770
463.179  9982.784  1146.523  4754.827
463.323  9803.790  1197.921  4847.894
463.467  9593.719  1146.552  4818.381
463.612  9560.390  1191.420  4865.925
463.756  9553.714  1146.312  4816.035
463.901  9856.269  1210.220  4892.839
464.045 10087.932  1155.147  4829.243
464.189 10551.024  1224.591  4930.228
464.334 10806.569  1167.163  4884.838
464.478 11108.165  1218.841  4911.543
464.622 11178.999  1148.647  4884.494
464.767 11259.766  1203.845  4930.431
464.911 11059.799  1153.092  4875.061
465.055 10895.069  1205.164  4970.668
465.200 10517.871  1170.346  4889.672
465.344 10172.659  1196.987  4925.174
465.488  9812.744  1099.306  4847.936
465.633  9835.448  1221.460  4997.359
465.777  9762.678  1190.461  4971.717
465.921  9953.013  1196.948  4970.637
466.066 10135.648  1157.855  4904.598
466.210 10533.459  1216.760  4982.282
466.354 10829.474  1134.217  4931.647
466.498 11211.769  1197.091  4967.354
466.643 11384.630  1153.106  4960.387
466.787 11459.040  1224.340  4982.427
466.931 11383.750  1226.301  4980.734
467.076 11184.743  1200.177  4984.325
467.220 10809.668  1155.755  4933.578
467.364 10466.684  1200.844  4956.697
467.508 10073.832  1149.139  4927.027
467.652  9904.613  1221.352  5011.050
467.797  9684.119  1168.109  4932.878
467.941  9837.749  1235.918  5029.066
468.085  9923.009  1131.992  4894.064
468.229 10325.917  1230.699  5019.326
468.374 10599.638  1158.961  4951.517
468.518 11068.674  1209.646  5017.753
468.662 11254.039  1161.060  4925.102
468.806 11482.435  1182.474  4974.894
468.950 11459.284  1179.664  4944.697
469.095 11426.833  1223.861  5001.486
469.239 11127.924  1206.912  5005.552
469.383 10817.974  1219.804  5020.274
469.527 10374.584  1181.882  4979.498
469.671 10099.813  1253.569  5059.827
469.815  9783.192  1168.761  4956.726
469.960  9803.949  1217.362  5042.609
470.104  9801.925  1154.764  4952.062
470.248 10079.479  1210.756  5021.989
470.392 10345.485  1220.073  5015.847
470.536 10764.590  1221.255  4996.232
470.680 11083.662  1217.856  5009.311
470.824 11434.429  1254.327  5048.711
470.969 11589.599  1175.392  4980.201
471.113 11586.569  1220.498  5033.566
471.257 11389.221  1185.397  5003.693
471.401 11148.649  1259.135  5046.552
471.545 10696.303  1200.179  5026.159
471.689 10410.779  1262.085  5056.015
471.833  9905.870  1153.911  4971.140
471.977  9841.507  1267.517  5093.966
472.121  9694.033  1199.249  5014.927
472.265  9900.080  1270.068  5092.283
472.409 10027.163  1175.742  5008.338
472.553 10511.824  1266.110  5104.199
472.698 10789.654  1187.252  5004.555
472.842 11291.493  1289.833  5137.879
472.986 11453.713  1185.402  5033.955
473.130 11677.529  1289.788  5146.920
473.274 11597.233  1217.422  5053.135
473.418 11550.498  1304.810  5171.142
473.562 11100.590  1232.455  5087.272
473.706 10811.818  1298.222  5138.747
473.850 10319.209  1236.844  5080.628
473.994 10117.348  1321.634  5186.048
474.138  9837.414  1250.384  5113.719
474.282  9849.608  1296.156  5197.407
474.426  9837.964  1246.069  5120.989
474.570 10148.224  1284.880  5142.048
474.714 10469.438  1243.496  5120.984
474.858 10983.843  1305.259  5206.939
475.002 11265.045  1239.392  5123.317
475.146 11669.167  1319.035  5239.212
475.290 11750.928  1219.110  5107.360
475.434 11903.952  1327.815  5268.063
475.578 11607.569  1271.630  5158.470
475.721 11432.953  1336.092  5238.050
475.865 10976.619  1284.814  5226.700
476.009 10669.943  1355.177  5259.205
476.153 10207.943  1267.410  5192.494
476.297 10064.108  1323.845  5264.592
476.441  9862.934  1248.968  5196.537
476.585 10044.060  1337.425  5294.140
476.729 10213.395  1271.364  5231.619
476.873 10616.979  1334.313  5275.596
477.017 10950.654  1253.392  5212.955
477.161 11460.634  1354.846  5336.173
477.305 11725.221  1283.016  5251.884
477.448 12042.764  1340.173  5353.742
477.592 11982.628  1255.902  5235.504
477.736 11977.044  1341.315  5356.621
477.880 11620.255  1334.881  5302.425
478.024 11402.734  1357.631  5360.826
478.168 10923.425  1351.519  5358.809
478.312 10578.613  1357.509  5350.027
478.455 10218.108  1305.065  5335.052
478.599 10124.192  1358.583  5372.160
478.743 10090.175  1334.767  5335.127
478.887 10323.809  1368.211  5420.094
479.031 10611.357  1328.554  5320.045
479.175 11060.469  1395.136  5418.287
479.318 11414.184  1343.789  5396.169
479.462 11850.694  1356.461  5405.720
479.606 11986.144  1304.544  5357.077
479.750 12220.468  1366.931  5402.189
479.894 12050.768  1296.976  5354.902
480.037 11955.389  1410.622  5471.229
480.181 11550.479  1297.242  5335.641
480.325 11263.693  1388.688  5457.617
480.469 10774.924  1285.558  5357.754
480.613 10530.875  1358.565  5438.929
480.756 10264.770  1350.940  5444.725
480.900 10242.538  1358.172  5444.281
481.044 10267.444  1319.273  5399.182
481.188 10684.038  1402.135  5489.015
481.331 10912.753  1313.573  5407.359
481.475 11385.454  1386.592  5505.995
481.619 11700.259  1323.145  5420.095
481.762 12167.043  1378.506  5513.530
481.906 12296.765  1346.993  5449.847
482.050 12420.854  1411.276  5550.538
482.194 12223.107  1339.028  5488.166
482.337 12019.238  1366.578  5461.003
482.481 11521.478  1294.564  5439.700
482.625 11209.499  1350.890  5508.027
482.768 10738.320  1283.171  5405.502
482.912 10562.729  1381.427  5541.871
483.056 10335.598  1297.014  5441.565
483.199 10434.368  1350.483  5560.633
483.343 10519.341  1328.993  5493.177
483.487 10909.988  1364.550  5536.625
483.630 11160.988  1324.339  5501.930
483.774 11745.090  1391.760  5579.465
483.918 11981.930  1275.707  5480.956
484.061 12448.040  1363.483  5568.141
484.205 12454.894  1297.899  5499.202
484.349 12567.055  1351.780  5571.096
484.492 12338.409  1336.434  5525.223
484.636 12123.724  1338.425  5566.061
484.779 11623.075  1272.227  5545.188
484.923 11311.784  1367.961  5587.643
485.067 10849.395  1287.669  5522.581
485.210 10635.118  1357.037  5567.754
485.354 10404.658  1260.183  5493.976
485.497 10436.709  1361.281  5558.349
485.641 10504.788  1301.127  5473.756
485.785 10806.843  1304.348  5482.275
485.928 11116.254  1300.901  5436.080
486.072 11473.003  1335.982  5449.453
486.215 11751.484  1262.277  5361.390
486.359 12125.193  1353.435  5454.849
486.502 12170.958  1284.231  5399.112
486.646 12317.034  1343.144  5503.319
486.789 12104.983  1315.083  5496.247
486.933 11927.350  1359.870  5550.870
487.077 11561.014  1311.050  5532.636
487.220 11350.313  1354.480  5638.931
487.364 10999.449  1312.313  5578.253
487.507 10866.880  1339.758  5677.088
487.651 10724.543  1285.616  5650.796
487.794 10806.044  1384.764  5718.437
487.938 10972.475  1289.426  5685.938
488.081 11360.887  1357.119  5730.136
488.225 11716.903  1330.657  5706.145
488.368 12120.359  1331.800  5722.422
488.512 12479.429  1328.845  5713.692
488.655 12824.538  1333.775  5752.035
488.798 12859.013  1303.412  5655.590
488.942 12903.128  1357.556  5754.642
489.085 12698.509  1289.328  5677.021
489.229 12500.959  1354.590  5771.688
489.372 12069.584  1316.153  5723.682
489.516 11708.965  1330.961  5735.663
489.659 11334.180  1302.941  5736.191
489.803 11043.215  1362.476  5735.573
489.946 10854.643  1288.837  5696.340
490.089 10933.094  1357.364  5773.274
490.233 11024.123  1270.838  5693.689
490.376 11370.354  1319.779  5769.841
490.520 11716.643  1336.362  5745.693
490.663 12233.339  1370.664  5788.605
490.806 12509.903  1280.856  5699.896
490.950 12839.037  1347.343  5792.391
491.093 12889.351  1249.383  5677.213
491.237 13047.998  1307.583  5760.896
491.380 12915.325  1292.705  5773.811
491.523 12654.930  1326.932  5752.569
491.667 12267.293  1270.918  5762.392
491.810 11917.540  1351.468  5809.163
491.953 11482.818  1291.671  5763.792
492.097 11226.125  1309.861  5781.423
492.240 10946.124  1270.538  5742.975
492.383 10967.240  1290.604  5779.951
492.527 10961.248  1232.850  5697.745
492.670 11301.499  1293.511  5783.557
492.813 11586.695  1283.255  5746.263
492.957 12059.394  1325.853  5789.159
493.100 12392.675  1284.141  5776.625
493.243 12901.199  1351.738  5858.749
493.386 12959.403  1261.347  5772.300
493.530 13084.004  1277.253  5762.342
493.673 12962.023  1292.299  5783.839
493.816 12789.021  1279.167  5757.679
493.960 12390.813  1214.771  5701.406
494.103 12133.339  1305.803  5812.456
494.246 11670.063  1246.765  5732.901
494.389 11317.219  1243.125  5767.195
494.533 11121.229  1288.515  5807.452
494.676 11026.054  1297.182  5818.021
494.819 10921.378  1187.672  5715.381
494.962 11267.109  1280.512  5830.384
495.106 11380.723  1175.864  5699.332
495.249 11919.983  1299.245  5814.481
495.392 12239.938  1215.197  5791.489
495.535 12625.004  1285.990  5793.958
495.678 12852.948  1224.483  5754.233
495.822 13054.449  1223.823  5793.559
495.965 13025.349  1208.596  5768.707
496.108 12999.039  1293.392  5840.846
496.251 12596.579  1184.304  5721.425
496.394 12357.310  1277.534  5842.383
496.538 11911.962  1191.396  5718.071
496.681 11536.503  1242.670  5784.134
496.824 11262.639  1221.463  5790.116
496.967 11186.029  1296.907  5844.891
497.110 11005.653  1233.591  5821.260
497.253 11139.600  1222.781  5820.292
497.396 11293.189  1200.894  5798.563
497.540 11664.299  1248.298  5801.983
497.683 11998.755  1204.664  5795.699
497.826 12467.453  1279.132  5865.490
497.969 12750.874  1214.260  5794.891
498.112 13041.914  1302.192  5871.295
498.255 13081.193  1212.363  5794.325
498.398 13101.337  1235.332  5833.947
498.541 12899.615  1222.021  5767.286
498.685 12719.545  1265.267  5877.345
498.828 12287.949  1169.852  5765.904
498.971 11979.425  1215.640  5799.434
499.114 11498.140  1152.265  5732.040
499.257 11289.454  1217.484  5807.519
499.400 11144.884  1220.082  5827.258
499.543 11082.274  1190.887  5790.302
499.686 11168.259  1201.258  5828.163
499.829 11507.419  1257.936  5851.169
499.972 11686.373  1205.406  5767.728
500.115 12085.439  1250.382  5816.101
500.258 12486.863  1199.999  5823.899
500.401 12812.664  1244.411  5819.828
500.544 13042.015  1210.863  5793.310
500.687 13149.819  1207.321  5819.731
500.830 13040.179  1193.556  5762.129
500.973 12971.859  1227.906  5842.884
501.116 12704.020  1219.372  5824.106
501.259 12396.054  1206.533  5879.459
501.402 11934.104  1180.882  5799.692
501.545 11693.158  1264.361  5867.637
501.688 11289.216  1196.274  5796.619
501.831 11241.153  1250.385  5855.264
501.974 11101.554  1172.903  5785.544
502.117 11258.944  1249.101  5835.243
502.260 11371.309  1161.687  5765.111
502.403 11781.920  1221.378  5820.309
502.546 12096.954  1175.660  5784.831
502.689 12540.830  1246.815  5833.852
502.832 12793.999  1174.170  5795.848
502.975 13103.069  1249.499  5875.975
503.118 13098.285  1166.552  5763.998
503.261 13155.463  1245.695  5860.566
503.404 12947.229  1227.349  5797.456
503.546 12725.214  1256.106  5860.453
503.689 12282.489  1178.123  5737.898
503.832 12027.479  1210.302  5826.327
503.975 11648.249  1217.874  5809.522
504.118 11393.450  1247.479  5823.521
504.261 11161.944  1187.827  5753.065
504.404 11201.589  1235.590  5812.445
504.547 11189.898  1249.666  5822.339
504.690 11472.243  1256.676  5828.036
504.832 11695.654  1205.207  5793.123
504.975 12083.473  1236.607  5832.348
505.118 12315.818  1161.602  5771.526
505.261 12726.732  1237.764  5812.869
505.404 12996.678  1223.166  5819.019
505.547 13163.438  1252.836  5882.225
505.689 13002.323  1228.722  5758.118
505.832 13030.014  1234.778  5832.472
505.975 12756.741  1210.419  5758.204
506.118 12441.809  1210.531  5811.974
506.261 12085.448  1215.626  5777.442
506.404 11795.639  1257.713  5854.710
506.546 11403.094  1216.920  5744.331
506.689 11301.594  1262.359  5857.501
506.832 11098.188  1234.511  5796.034
506.975 11173.505  1223.351  5808.688
507.117 11263.900  1186.825  5740.680
507.260 11594.064  1264.164  5838.356
507.403 11864.249  1179.802  5750.869
507.546 12273.484  1244.184  5836.657
507.688 12476.632  1180.894  5742.254
507.831 12829.833  1238.047  5805.708
507.974 12917.578  1212.181  5783.237
508.117 13082.818  1233.896  5775.145
508.259 12972.979  1215.232  5772.161
508.402 12878.324  1245.646  5788.516
508.545 12578.909  1199.062  5788.869
508.688 12307.936  1270.013  5834.109
508.830 11852.883  1192.445  5749.681
508.973 11599.549  1264.466  5822.102
509.116 11263.577  1185.774  5745.505
509.258 11263.288  1284.285  5868.832
509.401 11039.028  1186.014  5731.028
509.544 11227.989  1225.265  5817.917
509.686 11353.739  1204.046  5754.784
509.829 11717.270  1267.126  5859.507
509.972 11935.343  1173.563  5729.102
510.114 12396.515  1272.054  5876.534
510.257 12627.648  1193.370  5744.625
510.400 12903.450  1264.192  5849.049
510.542 13011.560  1220.394  5755.105
510.685 13159.408  1233.632  5832.739
510.828 12983.713  1241.608  5813.097
510.970 12882.521  1278.630  5882.702
511.113 12487.528  1204.119  5785.710
511.255 12167.057  1259.650  5838.757
511.398 11796.820  1186.889  5757.813
511.541 11583.589  1272.996  5857.867
511.683 11292.144  1212.418  5784.595
511.826 11249.178  1263.808  5844.483
511.968 11183.863  1239.465  5817.961
512.111 11438.934  1296.431  5854.966
512.254 11479.318  1188.412  5773.561
512.396 11900.610  1270.492  5851.529
512.539 12132.564  1196.820  5790.213
512.681 12474.033  1272.532  5826.250
512.824 12723.123  1190.635  5762.606
512.966 13133.943  1303.796  5884.536
513.109 13036.649  1189.034  5747.942
513.251 13164.118  1289.357  5867.114
513.394 13018.315  1224.952  5798.160
513.536 12870.818  1276.178  5840.483
513.679 12599.989  1243.493  5853.653
513.822 12268.374  1292.223  5894.110
513.964 11892.599  1193.849  5785.358
514.107 11689.683  1260.409  5856.564
514.249 11432.073  1245.335  5827.529
514.392 11421.849  1257.179  5864.950
514.534 11340.654  1221.483  5828.270
514.677 11546.075  1286.846  5899.258
514.819 11664.409  1235.747  5800.651
514.961 12021.775  1274.652  5891.180
515.104 12284.229  1192.872  5783.864
515.246 12754.403  1286.227  5923.580
515.389 12953.555  1196.219  5796.526
515.531 13274.298  1301.096  5937.665
515.674 13256.005  1250.587  5831.505
515.816 13353.618  1294.361  5936.257
515.959 13196.119  1218.331  5841.697
516.101 13060.173  1311.607  5961.768
516.243 12713.740  1221.331  5830.702
516.386 12434.860  1329.642  5944.006
516.528 12065.083  1227.705  5838.801
516.671 11925.823  1292.410  5944.594
516.813 11635.094  1287.104  5911.754
516.956 11650.935  1332.847  5990.902
517.098 11554.875  1264.802  5899.035
517.240 11701.669  1286.026  5907.762
517.383 11890.134  1266.225  5906.523
517.525 12248.965  1359.987  5967.985
517.667 12491.105  1301.919  5932.289
517.810 12891.733  1385.670  6024.536
517.952 13054.275  1281.681  5900.405
518.094 13285.894  1304.499  5910.721
518.237 13411.648  1295.674  5948.408
518.379 13514.019  1316.582  5952.687
518.521 13319.475  1268.478  5908.797
518.664 13266.474  1322.913  5951.599
518.806 12910.893  1269.636  5935.793
518.948 12708.059  1373.438  5992.163
519.091 12332.584  1322.247  5962.960
519.233 12138.904  1374.306  5998.155
519.375 11879.025  1301.970  5948.853
519.518 11742.833  1335.006  5951.348
519.660 11754.604  1350.238  5985.240
519.802 11867.679  1355.199  5983.013
519.944 11948.788  1282.878  5920.381
520.087 12342.764  1368.416  5988.796
520.229 12504.553  1278.321  5927.686
520.371 12907.760  1344.878  5978.269
520.514 13158.755  1316.855  5977.163
520.656 13464.583  1345.451  6007.723
520.798 13555.688  1315.442  5979.109
520.940 13632.394  1376.692  5991.450
521.083 13595.424  1332.723  6003.607
521.225 13484.824  1363.830  6020.339
521.367 13192.989  1286.517  5961.457
521.509 13061.648  1397.832  6068.104
521.651 12625.615  1332.353  6011.970
521.794 12427.039  1350.127  6018.474
521.936 12157.510  1373.499  6029.015
522.078 12013.838  1373.057  6027.434
522.220 11892.334  1328.466  6006.373
522.362 12005.823  1411.834  6055.237
522.505 12102.857  1367.063  6045.291
522.647 12464.126  1432.561  6099.768
522.789 12592.233  1366.245  6029.423
522.931 12965.739  1428.965  6113.815
523.073 13199.180  1367.698  6042.468
523.215 13518.414  1394.790  6083.236
523.357 13669.358  1369.143  6029.396
523.500 13878.593  1466.403  6149.024
523.642 13806.725  1373.781  6053.903
523.784 13730.412  1412.562  6097.010
523.926 13525.534  1391.437  6067.288
524.068 13359.475  1425.940  6156.416
524.210 13047.805  1386.171  6086.508
524.352 12791.868  1428.528  6135.266
524.494 12477.039  1401.580  6082.702
524.637 12353.389  1433.126  6133.461
524.779 12136.243  1377.722  6039.998
524.921 12209.832  1443.132  6136.215
525.063 12041.713  1319.915  5998.784
525.205 12431.378  1459.170  6161.722
525.347 12556.799  1405.386  6090.564
525.489 12964.279  1467.111  6177.637
525.631 13166.704  1427.879  6104.064
525.773 13493.865  1436.382  6155.752
525.915 13660.322  1359.973  6085.607
526.057 13874.054  1399.060  6135.491
526.199 13853.679  1397.534  6095.740
526.341 14043.034  1487.192  6235.815
526.483 13730.134  1380.100  6071.231
526.625 13711.887  1494.614  6217.383
526.767 13278.244  1390.884  6086.376
526.909 13093.938  1416.603  6154.356
527.051 12855.494  1406.900  6139.311
527.193 12738.323  1493.449  6260.284
527.335 12425.444  1378.617  6123.370
527.477 12468.819  1475.465  6228.735
527.619 12327.059  1379.208  6126.369
527.761 12482.098  1489.005  6222.610
527.903 12581.988  1406.294  6165.208
528.045 12833.090  1481.370  6229.770
528.187 13034.349  1403.038  6150.166
528.329 13378.180  1442.314  6199.045
528.471 13593.099  1408.310  6143.308
528.613 13900.308  1483.087  6243.677
528.755 13962.149  1404.258  6143.266
528.897 14111.819  1457.488  6223.103
529.039 14052.770  1414.781  6191.834
529.181 13997.145  1455.165  6231.906
529.323 13816.659  1440.336  6204.169
529.464 13538.943  1441.771  6173.443
529.606 13281.875  1399.254  6187.514
529.748 13110.824  1475.726  6261.416
529.890 12750.242  1371.424  6157.986
530.032 12696.249  1459.263  6242.139
530.174 12604.779  1428.214  6253.960
530.316 12591.095  1487.800  6268.916
530.458 12601.158  1427.132  6201.101
530.599 12740.998  1432.290  6168.642
530.741 12957.748  1433.479  6223.590
530.883 13263.799  1429.269  6206.458
531.025 13474.613  1398.638  6224.752
531.167 13812.414  1493.520  6304.151
531.309 13939.635  1451.496  6248.933
531.450 14238.233  1449.570  6246.116
531.592 14187.714  1427.517  6223.667
531.734 14313.594  1485.705  6269.184
531.876 14158.546  1450.030  6261.233
532.018 14193.813  1507.831  6347.666
532.159 13766.764  1419.227  6239.680
532.301 13705.699  1533.990  6354.268
532.443 13277.363  1372.266  6225.490
532.585 13214.278  1492.799  6338.053
532.727 12953.755  1455.555  6298.283
532.868 12897.026  1510.832  6327.964
533.010 12832.675  1498.030  6349.221
533.152 12854.180  1487.721  6294.112
533.294 12884.948  1434.858  6270.561
533.435 13198.584  1520.379  6337.924
533.577 13275.164  1406.919  6254.424
533.719 13685.425  1472.231  6321.948
533.861 13744.828  1388.310  6244.845
534.002 14176.733  1481.728  6364.637
534.144 14229.859  1413.007  6272.934
534.286 14464.600  1498.448  6362.403
534.427 14433.549  1452.560  6328.780
534.569 14407.584  1474.389  6338.809
534.711 14273.244  1420.747  6299.740
534.853 14196.773  1479.390  6367.876
534.994 13964.054  1448.396  6332.978
535.136 13749.384  1491.032  6377.393
535.278 13460.534  1428.384  6287.139
535.419 13419.820  1500.476  6427.844
535.561 13113.665  1434.461  6306.643
535.703 13145.628  1485.210  6408.465
535.844 13026.019  1434.806  6279.819
535.986 13244.407  1488.450  6437.520
536.128 13357.868  1465.502  6366.084
536.269 13615.129  1504.752  6450.664
536.411 13725.733  1439.465  6339.284
536.552 13977.223  1472.769  6416.384
536.694 14209.968  1475.558  6385.000
536.836 14454.549  1464.576  6423.547
536.977 14514.108  1448.715  6358.178
537.119 14718.833  1488.322  6451.415
537.260 14574.567  1410.876  6319.702
537.402 14648.333  1520.238  6463.252
537.544 14468.519  1418.492  6379.321
537.685 14360.368  1530.629  6472.135
537.827 14159.799  1489.852  6443.161
537.968 13998.779  1524.670  6463.087
538.110 13705.024  1474.789  6412.669
538.251 13606.724  1508.078  6459.734
538.393 13356.354  1404.289  6392.587
538.535 13406.028  1485.576  6440.527
538.676 13398.743  1460.244  6416.832
538.818 13531.948  1491.775  6435.277
538.959 13594.194  1478.132  6420.875
539.101 13872.688  1498.720  6447.740
539.242 14000.714  1463.946  6440.233
539.384 14274.974  1488.605  6445.744
539.525 14341.068  1451.122  6393.989
539.667 14653.140  1481.432  6443.506
539.808 14712.492  1388.929  6394.302
539.950 14920.889  1565.803  6533.139
540.091 14739.529  1451.083  6407.438
540.233 14825.979  1488.326  6465.344
540.374 14668.964  1467.670  6462.359
540.516 14555.219  1492.263  6495.036
540.657 14292.889  1438.557  6421.696
540.798 14199.983  1510.019  6508.619
540.940 13853.520  1417.351  6377.697
541.081 13817.614  1523.547  6502.623
541.223 13624.559  1417.758  6403.603
541.364 13696.449  1507.033  6526.873
541.506 13527.188  1462.629  6403.870
541.647 13704.060  1516.568  6513.243
541.788 13749.194  1477.976  6415.038
541.930 13998.679  1519.074  6495.420
542.071 14108.209  1424.962  6392.909
542.213 14406.438  1548.799  6531.753
542.354 14538.646  1434.206  6410.422
542.495 14855.633  1544.617  6530.743
542.637 14848.402  1494.357  6465.980
542.778 14951.589  1527.331  6499.034
542.920 14814.953  1462.917  6416.303
543.061 14965.455  1526.945  6506.229
543.202 14736.494  1437.917  6420.928
543.344 14642.898  1484.744  6446.045
543.485 14506.110  1489.662  6488.304
543.626 14410.745  1531.194  6514.057
543.768 14039.334  1437.047  6433.322
543.909 13962.563  1504.505  6454.441
544.050 13793.703  1467.310  6418.813
544.192 13719.920  1523.922  6439.761
544.333 13613.839  1478.699  6392.113
544.474 13790.652  1500.405  6458.958
544.615 13798.777  1454.804  6402.560
544.757 14056.833  1517.776  6491.453
544.898 14120.889  1469.955  6414.058
545.039 14334.714  1490.159  6478.221
545.181 14398.645  1472.845  6391.026
545.322 14738.459  1512.438  6484.563
545.463 14717.573  1429.359  6358.062
545.604 14879.958  1474.152  6445.341
545.746 14916.409  1488.483  6396.039
545.887 15000.744  1512.086  6499.175
546.028 14783.895  1473.469  6383.101
546.169 14711.664  1499.332  6470.632
546.311 14407.567  1414.622  6336.064
546.452 14398.448  1483.204  6397.463
546.593 14195.000  1434.393  6389.816
546.734 14034.205  1506.337  6409.130
546.875 13814.668  1476.579  6399.550
547.017 13785.539  1496.989  6400.538
547.158 13650.754  1437.238  6350.657
547.299 13762.248  1519.083  6429.493
547.440 13673.109  1435.392  6349.524
547.581 13879.813  1474.060  6370.111
547.723 13956.734  1483.663  6391.110
547.864 14196.930  1492.849  6418.301
548.005 14294.679  1494.194  6395.620
548.146 14592.659  1503.111  6454.197
548.287 14574.413  1429.489  6303.387
548.428 14728.444  1492.545  6389.366
548.570 14689.073  1429.751  6287.521
548.711 14868.849  1507.675  6457.118
548.852 14745.443  1491.695  6362.686
548.993 14762.323  1484.819  6410.499
549.134 14461.978  1428.182  6293.042
549.275 14413.169  1500.671  6406.654
549.416 14084.038  1404.578  6259.583
549.557 14078.649  1492.831  6386.520
549.698 13838.217  1444.036  6338.759
549.839 13774.339  1518.920  6358.262
549.981 13556.214  1451.985  6317.304
550.122 13690.743  1545.556  6400.536
550.263 13582.193  1455.768  6364.997
550.404 13654.644  1519.328  6359.480
550.545 13653.624  1422.329  6284.889
550.686 13868.581  1546.242  6370.388
550.827 13940.508  1456.174  6295.448
550.968 14215.165  1557.624  6386.562
551.109 14275.638  1528.266  6328.219
551.250 14458.848  1535.661  6364.575
551.391 14473.449  1495.395  6295.712
551.532 14554.028  1468.071  6344.514
551.673 14591.689  1484.499  6295.095
551.814 14563.470  1545.320  6421.465
551.955 14397.834  1480.576  6303.898
552.096 14427.773  1557.064  6390.434
552.237 14066.644  1410.230  6224.253
552.378 14074.139  1527.608  6355.528
552.519 13759.100  1502.823  6280.701
552.660 13685.493  1492.288  6279.897
552.801 13511.654  1445.261  6274.320
552.942 13512.823  1482.524  6303.352
553.083 13362.970  1454.622  6257.003
553.224 13463.399  1503.316  6286.609
553.365 13422.759  1459.925  6268.855
553.506 13601.824  1518.493  6315.022
553.647 13587.653  1459.771  6250.360
553.788 13732.875  1500.674  6274.894
553.928 13839.439  1444.896  6196.589
554.069 14078.695  1493.926  6290.678
554.210 14042.648  1397.305  6155.252
554.351 14278.384  1502.487  6297.940
554.492 14255.969  1454.132  6204.404
554.633 14348.003  1518.245  6318.081
554.774 14228.704  1473.272  6209.913
554.915 14248.063  1517.530  6285.793
555.056 14040.009  1442.884  6211.968
555.196 14049.799  1503.461  6273.332
555.337 13766.408  1470.665  6239.472
555.478 13660.900  1516.201  6237.257
555.619 13488.749  1443.030  6207.250
555.760 13463.184  1536.084  6268.937
555.901 13257.809  1470.805  6241.552
556.042 13329.889  1564.615  6313.257
556.182 13144.559  1464.314  6176.680
556.323 13275.789  1493.765  6249.397
556.464 13276.066  1458.393  6169.773
556.605 13426.510  1536.294  6276.783
556.746 13441.709  1426.197  6082.896
556.886 13784.638  1556.190  6303.083
557.027 13777.049  1454.892  6133.824
557.168 13927.435  1510.377  6235.768
557.309 13951.909  1464.144  6159.268
557.450 14001.618  1505.421  6192.897
557.590 14013.341  1489.601  6207.437
557.731 14010.729  1523.858  6190.326
557.872 13905.233  1490.002  6192.395
558.013 13902.449  1529.603  6204.298
558.153 13647.308  1429.910  6106.380
558.294 13695.188  1545.011  6193.474
558.435 13446.418  1514.251  6179.552
558.576 13368.043  1515.568  6214.335
558.716 13109.453  1456.439  6080.381
558.857 13115.129  1552.796  6233.807
558.998 12927.454  1474.656  6091.358
559.138 12977.515  1524.728  6171.812
559.279 12974.019  1522.829  6147.538
559.420 13024.435  1504.054  6130.214
559.560 13059.475  1523.903  6144.830
559.701 13255.974  1513.868  6166.157
559.842 13291.374  1511.839  6128.981
559.982 13437.024  1502.181  6109.263
560.123 13503.514  1536.443  6158.504
560.264 13662.369  1545.246  6136.622
560.404 13681.953  1473.693  6063.959
560.545 13903.191  1561.087  6177.383
560.686 13797.638  1493.901  6097.537
560.826 13807.053  1529.350  6162.851
560.967 13609.999  1494.106  6047.344
561.108 13595.364  1515.484  6136.997
561.248 13383.413  1490.817  6029.482
561.389 13385.129  1566.852  6188.564
561.529 13158.294  1509.161  6052.580
561.670 13116.429  1571.552  6158.644
561.811 12848.869  1472.478  6044.786
561.951 12895.454  1537.545  6136.344
562.092 12755.245  1521.547  6091.665
562.232 12815.264  1556.283  6125.667
562.373 12745.113  1543.815  6107.649
562.514 12880.675  1571.354  6131.134
562.654 12863.623  1511.664  6073.171
562.795 12981.349  1528.143  6067.499
562.935 13084.214  1502.990  6041.556
563.076 13231.185  1536.592  6102.938
563.216 13207.314  1461.935  5980.263
563.357 13431.589  1563.518  6125.326
563.497 13464.844  1537.338  6032.595
563.638 13513.073  1553.529  6077.146
563.778 13447.634  1501.504  6012.594
563.919 13523.394  1543.292  6046.770
564.059 13390.068  1533.519  6064.610
564.200 13397.510  1571.995  6059.992
564.340 13128.504  1525.326  6019.170
564.481 13099.313  1567.259  6063.501
564.621 12891.115  1500.767  5996.947
564.762 12848.658  1551.816  6054.404
564.902 12647.413  1487.102  5955.775
565.043 12630.044  1551.676  6035.181
565.183 12464.470  1458.139  5911.895
565.324 12574.719  1540.532  6055.141
565.464 12443.832  1463.228  5911.352
565.604 12673.783  1563.396  6036.816
565.745 12574.783  1511.636  5982.456
565.885 12778.688  1612.220  6020.320
566.026 12751.835  1540.108  5992.052
566.166 12946.264  1540.500  5984.128
566.307 12971.039  1501.532  5953.886
566.447 13046.809  1524.437  5951.037
566.587 13088.315  1488.351  5930.411
566.728 13253.774  1550.299  5992.747
566.868 13182.760  1489.443  5899.661
567.009 13165.465  1549.112  5997.638
567.149 13056.978  1489.269  5896.893
567.289 13022.720  1544.607  5977.813
567.430 12868.654  1515.016  5910.678
567.570 12784.838  1558.924  5944.360
567.710 12625.919  1509.092  5888.426
567.851 12592.739  1555.054  5959.120
567.991 12474.165  1494.652  5918.438
568.131 12436.244  1554.266  5940.855
568.272 12293.623  1498.882  5881.098
568.412 12347.709  1521.727  5929.451
568.552 12308.524  1494.430  5864.438
568.693 12380.921  1546.856  5940.664
568.833 12313.878  1500.356  5814.745
568.973 12450.368  1572.572  5925.999
569.114 12464.144  1469.403  5810.447
569.254 12668.094  1574.100  5905.151
569.394 12686.853  1546.967  5885.508
569.534 12852.439  1565.559  5892.098
569.675 12795.073  1470.244  5839.554
569.815 12895.039  1548.101  5876.171
569.955 12861.744  1459.274  5807.451
570.095 12871.516  1528.897  5861.762
570.236 12819.879  1521.431  5836.537
570.376 12844.564  1553.386  5875.635
570.516 12648.975  1504.993  5804.604
570.656 12614.683  1510.823  5842.042
570.797 12397.684  1490.370  5749.094
570.937 12361.448  1550.606  5831.862
571.077 12196.659  1492.347  5760.674
571.217 12206.110  1557.562  5840.124
571.357 12070.719  1501.268  5782.289
571.498 12114.479  1579.445  5837.395
571.638 12024.753  1499.731  5795.260
571.778 12051.028  1522.322  5795.289
571.918 12043.374  1494.473  5734.544
572.058 12156.360  1570.074  5825.125
572.198 12110.189  1508.755  5709.832
572.339 12359.458  1612.044  5869.660
572.479 12260.958  1507.089  5704.873
572.619 12415.960  1556.180  5787.387
572.759 12456.934  1515.723  5722.765
572.899 12574.979  1576.868  5744.568
573.039 12515.718  1513.801  5722.297
573.179 12569.063  1559.629  5729.349
573.319 12453.163  1497.055  5658.406
573.460 12531.354  1549.545  5744.764
573.600 12400.344  1509.818  5666.314
573.740 12392.269  1589.192  5778.204
573.880 12230.372  1525.239  5671.707
574.020 12219.479  1564.385  5754.395
574.160 11982.339  1508.774  5651.260
574.300 12054.748  1610.370  5746.425
574.440 11848.185  1540.955  5670.281
574.580 11808.444  1553.084  5644.237
574.720 11708.000  1530.754  5634.845
574.860 11785.395  1629.605  5727.588
575.000 11627.341  1519.141  5586.917
575.140 11795.339  1602.141  5708.032
575.280 11802.164  1572.018  5633.674
575.420 11904.648  1581.345  5700.552
575.560 11828.555  1521.998  5585.637
575.701 11992.984  1576.609  5651.749
575.840 11925.688  1540.898  5603.781
575.980 12069.604  1557.589  5601.849
576.120 12154.944  1516.373  5600.202
576.260 12154.294  1578.243  5596.030
576.400 12137.120  1513.199  5564.238
576.540 12217.139  1579.764  5634.166
576.680 12161.124  1528.649  5567.229
576.820 12040.706  1519.812  5559.424
576.960 11928.245  1494.637  5477.250
577.100 11978.248  1570.624  5611.583
577.240 11722.733  1497.453  5491.679
577.380 11754.989  1576.092  5584.064
577.520 11551.849  1505.672  5516.084
577.660 11638.870  1602.531  5601.339
577.800 11468.854  1479.456  5488.598
577.940 11444.563  1570.784  5531.751
578.080 11331.359  1516.477  5470.059
578.220 11389.554  1588.437  5547.167
578.360 11323.596  1543.777  5467.262
578.499 11412.994  1601.691  5560.946
578.639 11373.850  1521.179  5450.295
578.779 11512.964  1588.511  5494.043
578.919 11506.204  1541.916  5462.781
579.059 11682.214  1590.123  5492.950
579.199 11613.193  1525.504  5425.934
579.339 11712.569  1580.249  5465.301
579.479 11658.841  1527.533  5399.781
579.618 11757.208  1604.215  5494.237
579.758 11663.006  1499.213  5338.972
579.898 11684.674  1558.535  5427.749
580.038 11601.078  1532.332  5373.881
580.178 11636.089  1597.465  5444.312
580.318 11461.059  1517.831  5378.872
580.457 11439.520  1588.286  5412.664
580.597 11312.395  1544.987  5366.302
580.737 11195.209  1546.982  5346.409
580.877 11043.829  1487.834  5272.042
581.017 11101.439  1575.576  5387.049
581.156 10865.313  1528.520  5262.231
581.296 10992.273  1617.184  5411.814
581.436 10935.674  1603.239  5358.102
581.576 10918.660  1583.694  5345.785
581.715 10837.398  1507.032  5277.041
581.855 10973.795  1561.872  5305.700
581.995 10940.994  1541.856  5274.258
582.135 11079.029  1563.050  5286.810
582.274 11035.204  1519.701  5225.803
582.414 11140.930  1566.554  5298.843
582.554 11070.290  1521.752  5184.869
582.694 11278.198  1602.633  5310.491
582.833 11221.627  1547.210  5231.480
582.973 11247.049  1575.006  5234.402
583.113 11206.654  1524.713  5209.944
583.252 11170.849  1579.582  5211.429
583.392 11020.029  1450.899  5120.515
583.532 11076.774  1592.309  5228.381
583.671 10827.399  1461.485  5092.035
583.811 10871.283  1603.120  5217.548
583.951 10730.744  1514.301  5118.083
584.090 10749.479  1560.000  5182.342
584.230 10609.430  1554.901  5127.294
584.370 10547.519  1523.032  5110.541
584.509 10436.349  1483.407  5107.011
584.649 10394.839  1512.996  5066.129
584.789 10328.130  1531.333  5097.558
584.928 10416.913  1568.563  5133.485
585.068 10299.179  1506.783  5017.716
585.207 10467.374  1540.046  5123.533
585.347 10417.695  1511.575  5040.383
585.487 10491.259  1511.666  5063.724
585.626 10538.022  1496.924  5005.852
585.766 10605.310  1512.090  5000.310
585.905 10603.094  1493.253  5007.659
586.045 10729.055  1549.499  5046.167
586.184 10555.988  1437.368  4914.326
586.324 10735.995  1555.607  5041.427
586.464 10647.555  1496.030  4938.181
586.603 10676.554  1562.126  5023.453
586.743 10497.402  1450.460  4872.914
586.882 10522.239  1502.650  4939.647
587.022 10434.563  1533.268  4968.015
587.161 10395.914  1566.337  4962.248
587.301 10215.719  1456.351  4880.997
587.440 10250.070  1578.747  4954.856
587.580 10049.265  1503.920  4885.533
587.719  9963.874  1505.619  4899.721
587.859  9923.475  1511.087  4877.563
587.998  9912.220  1545.588  4920.983
588.138  9801.765  1452.648  4792.154
588.277  9885.279  1527.221  4863.651
588.417  9723.453  1406.595  4719.789
588.556  9916.814  1536.030  4856.021
588.696  9883.903  1488.996  4811.816
588.835 10004.208  1529.263  4850.113
588.974 10009.949  1526.973  4802.593
589.114 10054.294  1504.091  4839.686
589.253 10071.744  1510.967  4786.740
589.393 10116.354  1493.552  4756.735
589.532 10114.574  1446.954  4733.734
589.672 10127.059  1477.439  4713.433
589.811 10009.385  1419.346  4647.155
589.950 10125.659  1542.561  4764.972
590.090  9917.643  1454.203  4654.222
590.229 10029.972  1529.683  4769.760
590.369  9831.824  1479.774  4672.111
590.508  9779.478  1467.570  4685.402
590.647  9685.684  1453.666  4672.970
590.787  9648.890  1531.219  4698.295
590.926  9470.579  1440.110  4618.407
591.065  9427.549  1476.207  4626.531
591.205  9335.174  1467.009  4611.087
591.344  9284.388  1492.681  4619.194
591.483  9278.199  1515.152  4630.606
591.623  9241.523  1496.899  4596.639
591.762  9222.390  1417.908  4521.601
591.901  9341.018  1496.598  4605.838
592.041  9268.359  1425.301  4523.731
592.180  9420.613  1495.922  4585.175
592.319  9376.878  1446.792  4509.401
592.459  9479.118  1501.167  4564.449
592.598  9456.692  1431.530  4464.491
592.737  9534.469  1488.091  4541.734
592.877  9463.773  1446.853  4453.439
593.016  9595.600  1491.765  4537.060
593.155  9462.798  1420.000  4445.188
593.294  9481.454  1479.812  4459.035
593.434  9415.760  1407.168  4405.183
593.573  9480.759  1500.113  4473.210
593.712  9279.003  1399.570  4367.014
593.851  9243.910  1484.226  4469.667
593.990  9069.984  1376.886  4337.916
594.130  9090.317  1484.090  4439.182
594.269  8955.299  1421.839  4362.613
594.408  8883.725  1466.870  4374.199
594.547  8788.125  1427.919  4370.529
594.687  8798.264  1479.884  4373.296
594.826  8666.165  1417.875  4313.226
594.965  8722.854  1462.296  4382.858
595.104  8727.718  1458.742  4347.827
595.243  8707.458  1492.117  4368.494
595.382  8680.094  1417.279  4255.021
595.522  8804.404  1448.501  4295.143
595.661  8689.622  1394.696  4255.491
595.800  8910.133  1503.036  4344.573
595.939  8836.590  1398.726  4217.587
596.078  8976.950  1492.577  4338.042
596.217  8866.555  1413.708  4202.832
596.356  8964.864  1448.258  4254.334
596.496  8920.904  1448.639  4211.464
596.635  9006.523  1504.865  4265.721
596.774  8791.753  1363.057  4119.123
596.913  8888.463  1456.235  4203.146
597.052  8751.898  1413.649  4142.538
597.191  8789.340  1480.678  4213.289
597.330  8631.924  1419.173  4138.542
597.469  8563.174  1467.786  4210.133
597.608  8413.290  1373.060  4074.245
597.747  8362.108  1420.495  4121.198
597.886  8278.193  1383.950  4090.616
598.026  8299.204  1453.424  4122.856
598.165  8100.499  1393.830  4060.347
598.304  8166.269  1442.458  4130.226
598.443  8048.984  1368.640  4010.493
598.582  8120.540  1408.113  4083.976
598.721  8118.639  1432.593  4068.051
598.860  8139.794  1436.194  4056.014
598.999  8115.729  1380.635  4004.117
599.138  8193.229  1439.169  4032.156
599.277  8195.893  1382.509  3992.202
599.416  8345.519  1434.014  4062.380
599.555  8227.948  1369.366  3930.062
599.694  8364.514  1454.905  4029.063
599.833  8291.503  1362.475  3923.786
599.972  8364.252  1410.109  3967.902
600.111  8313.260  1402.852  3968.786
600.250  8281.177  1389.937  3928.549
600.388  8184.534  1327.716  3881.818
600.527  8206.709  1421.446  3958.942
600.666  8063.052  1384.458  3883.207
600.805  8069.280  1394.714  3906.525
600.944  7914.434  1336.489  3838.387
601.083  7910.700  1394.166  3867.969
601.222  7767.793  1375.006  3866.248
601.361  7734.368  1406.789  3878.595
601.500  7618.044  1323.269  3804.049
601.639  7683.814  1422.288  3887.732
601.778  7559.455  1320.128  3744.512
601.917  7635.534  1426.453  3872.104
602.055  7561.794  1359.227  3798.022
602.194  7655.914  1431.755  3870.569
602.333  7519.944  1332.954  3763.211
602.472  7642.105  1417.604  3823.342
602.611  7605.533  1337.257  3717.823
602.750  7697.524  1353.865  3772.106
602.888  7659.261  1317.333  3702.481
603.027  7788.899  1369.361  3745.372
603.166  7736.607  1333.800  3712.925
603.305  7850.918  1389.760  3760.248
603.444  7746.454  1284.974  3643.389
603.583  7803.283  1392.044  3742.691
603.721  7680.579  1345.964  3670.325
603.860  7761.377  1396.997  3751.469
603.999  7561.768  1262.629  3582.755
604.138  7613.459  1347.452  3660.466
604.277  7465.479  1304.200  3630.502
604.415  7478.249  1379.300  3663.959
604.554  7340.629  1305.128  3627.720
604.693  7341.835  1323.078  3646.522
604.832  7219.059  1320.049  3578.858
604.970  7220.194  1326.957  3632.948
605.109  7063.653  1281.059  3549.082
605.248  7148.233  1345.422  3617.935
605.387  6989.513  1239.003  3503.225
605.525  7127.704  1372.753  3603.622
605.664  7066.394  1328.931  3581.166
605.803  7121.645  1353.396  3603.261
605.941  7012.987  1259.220  3469.265
606.080  7142.580  1311.408  3545.943
606.219  7144.808  1286.949  3510.535
606.357  7194.165  1313.539  3490.149
606.496  7137.958  1235.162  3446.026
606.635  7263.518  1328.514  3516.206
606.773  7246.785  1300.633  3464.847
606.912  7342.269  1345.051  3544.134
607.051  7255.719  1301.585  3453.695
607.189  7263.944  1272.110  3438.579
607.328  7164.604  1261.851  3436.408
607.467  7178.415  1291.860  3448.316
607.605  7018.305  1207.340  3354.739
607.744  7043.100  1262.127  3402.974
607.883  6866.795  1211.315  3312.923
608.021  6950.449  1313.796  3451.327
608.160  6752.275  1226.012  3337.380
608.298  6812.099  1289.995  3385.720
608.437  6692.404  1261.971  3376.128
608.576  6667.323  1260.231  3336.803
608.714  6613.995  1281.142  3362.095
608.853  6659.673  1318.547  3410.868
608.991  6569.928  1252.010  3326.025
609.130  6648.989  1336.163  3409.098
609.268  6622.048  1293.714  3382.928
609.407  6639.890  1279.370  3333.850
609.546  6588.653  1252.257  3296.843
609.684  6682.675  1286.530  3332.721
609.823  6672.364  1262.071  3278.228
609.961  6754.373  1307.238  3361.152
610.100  6676.804  1142.613  3174.002
610.238  6776.654  1274.707  3299.022
610.377  6716.579  1205.363  3227.136
610.515  6816.239  1318.876  3307.909
610.654  6755.674  1227.838  3234.837
610.792  6747.429  1233.820  3246.760
610.931  6714.795  1257.375  3223.283
611.069  6741.098  1285.769  3277.733
611.208  6620.328  1251.137  3220.671
611.346  6652.689  1316.018  3283.866
611.485  6498.018  1242.851  3214.412
611.623  6482.724  1265.417  3213.325
611.761  6439.228  1268.092  3200.079
611.900  6396.253  1289.143  3249.165
612.038  6315.938  1252.622  3169.026
612.177  6302.360  1261.728  3208.023
612.315  6180.600  1185.042  3142.761
612.454  6214.094  1241.353  3166.524
612.592  6145.688  1199.135  3124.392
612.730  6266.788  1297.231  3220.609
612.869  6132.609  1203.118  3087.926
613.007  6219.173  1255.064  3161.954
613.146  6182.914  1185.241  3105.160
613.284  6287.784  1276.634  3146.851
613.422  6294.027  1262.631  3133.849
613.561  6274.119  1201.338  3090.083
613.699  6252.735  1199.735  3058.403
613.837  6361.314  1253.380  3128.931
613.976  6245.990  1144.923  3008.093
614.114  6421.618  1289.957  3140.994
614.252  6306.374  1198.451  3044.605
614.391  6326.729  1203.240  3049.685
614.529  6315.395  1224.683  3077.430
614.667  6299.798  1235.212  3077.461
614.806  6143.574  1132.350  2936.816
614.944  6245.578  1272.678  3095.658
615.082  6129.748  1169.476  3004.902
615.221  6166.693  1285.413  3084.419
615.359  5956.459  1139.576  2946.189
615.497  5999.660  1203.134  3009.765
615.635  5923.254  1210.399  2999.027
615.774  5976.424  1308.690  3102.319
615.912  5842.429  1199.198  2973.066
616.050  5846.118  1218.972  2999.921
616.188  5709.888  1113.119  2895.070
616.327  5854.428  1242.658  3025.381
616.465  5804.840  1203.038  2972.928
616.603  5829.548  1210.808  2977.866
616.741  5789.955  1189.779  2929.547
616.880  5873.978  1224.484  2973.440
617.018  5866.343  1199.034  2960.037
617.156  5937.759  1241.290  2963.987
617.294  5905.875  1160.130  2902.641
617.432  5997.343  1244.686  2990.630
617.571  5936.028  1183.395  2909.538
617.709  5995.760  1241.103  2968.921
617.847  5874.118  1112.072  2833.141
617.985  5977.749  1234.883  2938.779
618.123  5926.754  1212.885  2908.644
618.261  5886.775  1181.485  2894.589
618.400  5776.414  1114.576  2794.978
618.538  5806.642  1168.975  2862.841
618.676  5733.574  1164.657  2847.568
618.814  5776.819  1234.559  2916.993
618.952  5622.464  1134.283  2807.427
619.090  5669.980  1198.457  2883.854
619.228  5526.058  1144.839  2787.008
619.366  5538.624  1184.618  2839.235
619.505  5532.264  1195.612  2861.952
619.643  5493.854  1198.752  2834.715
619.781  5420.899  1157.359  2810.973
619.919  5478.293  1200.444  2845.294
620.057  5407.738  1145.337  2782.914
620.195  5438.527  1183.215  2827.652
620.333  5370.437  1084.971  2713.587
620.471  5480.513  1177.809  2797.387
620.609  5427.264  1129.759  2755.324
620.747  5485.929  1142.740  2752.780
620.885  5470.878  1101.436  2720.144
621.023  5634.895  1253.354  2867.374
621.161  5502.208  1088.190  2682.045
621.299  5613.310  1212.356  2814.921
621.437  5522.520  1097.863  2721.821
621.575  5554.023  1132.492  2714.492
621.713  5538.153  1116.403  2699.145
621.851  5575.967  1156.754  2744.923
621.989  5477.654  1095.360  2650.651
622.127  5547.218  1169.547  2755.009
622.265  5382.284  1059.683  2640.127
622.403  5449.363  1168.759  2727.179
622.541  5349.350  1113.573  2665.058
622.679  5364.228  1186.210  2743.880
622.817  5269.827  1090.853  2643.654
622.955  5297.683  1191.193  2750.367
623.093  5186.018  1128.510  2670.022
623.231  5185.983  1156.522  2667.498
623.369  5083.029  1072.153  2613.373
623.507  5122.159  1147.696  2673.689
623.645  5053.839  1077.689  2605.638
623.783  5159.384  1166.730  2694.779
623.920  5046.289  1079.008  2599.121
624.058  5137.134  1133.285  2647.083
624.196  5103.114  1092.899  2633.881
624.334  5125.664  1105.773  2615.042
624.472  5150.970  1095.755  2587.792
624.610  5254.468  1169.983  2679.993
624.748  5081.939   993.161  2490.592
624.886  5268.784  1137.498  2639.875
625.023  5153.164  1014.231  2514.203
625.161  5284.488  1126.042  2601.464
625.299  5246.470  1093.536  2574.602
625.437  5296.912  1150.183  2643.820
625.575  5172.964  1082.591  2544.108
625.713  5217.208  1112.236  2593.647
625.850  5153.148  1083.762  2568.684
625.988  5215.809  1166.553  2640.493
626.126  5085.966  1080.401  2539.208
626.264  5094.738  1114.510  2577.802
626.402  5035.208  1083.715  2540.038
626.539  5019.814  1114.471  2566.125
626.677  4970.609  1074.087  2551.611
626.815  4966.540  1132.483  2581.001
626.953  4865.944  1051.358  2485.935
627.090  4936.268  1124.188  2584.766
627.228  4812.163  1054.899  2491.039
627.366  4871.740  1112.278  2551.688
627.504  4796.888  1059.789  2497.916
627.641  4865.688  1096.748  2524.426
627.779  4822.188  1067.106  2486.002
627.917  4896.729  1092.856  2538.107
628.055  4850.769  1043.947  2463.011
628.192  4899.323  1084.120  2505.628
628.330  4883.738  1056.006  2474.959
628.468  4992.483  1131.352  2550.732
628.605  4885.378  1025.063  2444.636
628.743  4971.284  1100.749  2499.769
628.881  4948.798  1040.163  2441.956
629.018  5011.597  1103.105  2502.195
629.156  4937.029  1060.347  2459.731
629.294  4973.073  1077.864  2469.694
629.431  4923.113  1073.444  2437.994
629.569  4984.646  1119.615  2506.586
629.707  4877.993  1062.727  2428.208
629.844  4951.934  1163.451  2535.266
629.982  4822.244  1074.450  2439.979
630.119  4792.604  1066.150  2417.279
630.257  4753.369  1046.337  2403.896
630.395  4751.339  1093.480  2463.402
630.532  4674.423  1029.157  2383.285
630.670  4705.349  1113.023  2460.578
630.807  4630.684  1043.831  2415.083
630.945  4692.066  1111.556  2457.715
631.083  4604.364  1052.412  2393.712
631.220  4617.799  1069.829  2418.938
631.358  4542.035  1016.588  2344.012
631.495  4605.647  1090.446  2426.947
631.633  4525.967  1008.303  2343.628
631.770  4647.937  1092.971  2408.947
631.908  4612.570  1051.512  2373.569
632.045  4681.993  1088.541  2431.006
632.183  4608.899  1019.670  2330.167
632.320  4695.398  1079.396  2390.844
632.458  4666.218  1030.051  2340.412
632.595  4732.369  1075.673  2373.513
632.733  4697.962  1035.708  2330.675
632.870  4742.273  1080.530  2398.076
633.008  4677.232  1019.924  2307.409
633.145  4789.623  1124.760  2434.848
633.283  4697.498  1055.326  2373.439
633.420  4798.239  1147.495  2442.720
633.558  4655.804  1054.854  2319.631
633.695  4695.954  1090.832  2394.855
633.833  4569.529  1016.127  2300.651
633.970  4639.572  1110.768  2401.652
634.108  4567.888  1079.519  2354.790
634.245  4556.469  1106.217  2368.776
634.382  4542.083  1092.816  2366.296
634.520  4490.490  1092.781  2382.774
634.657  4502.293  1118.670  2376.476
634.795  4472.279  1115.590  2372.708
634.932  4402.335  1050.347  2334.288
635.069  4424.789  1050.680  2310.959
635.207  4405.982  1064.467  2320.745
635.344  4438.513  1103.385  2361.118
635.482  4411.897  1072.624  2313.500
635.619  4497.825  1129.258  2375.520
635.756  4427.628  1045.185  2294.232
635.894  4464.188  1053.851  2289.894
636.031  4483.049  1079.253  2322.893
636.168  4521.214  1071.623  2334.310
636.306  4469.509  1022.926  2265.962
636.443  4592.917  1133.258  2366.738
636.580  4488.675  1020.810  2276.141
636.718  4593.868  1111.904  2346.423
636.855  4486.174  1020.953  2245.944
636.992  4553.995  1075.099  2313.987
637.130  4533.909  1101.927  2313.851
637.267  4480.404  1029.753  2254.222
637.404  4483.744  1047.244  2271.597
637.541  4513.323  1104.901  2311.528
637.679  4395.838  1001.686  2207.559
637.816  4503.159  1156.539  2376.813
637.953  4345.469  1027.437  2238.496
638.090  4385.330  1097.036  2282.661
638.228  4298.109  1021.712  2238.104
638.365  4317.602  1086.443  2296.477
638.502  4226.144  1015.047  2203.060
638.639  4247.004  1054.818  2251.195
638.777  4162.388  1021.961  2213.294
638.914  4202.733  1047.677  2217.223
639.051  4127.440   973.892  2157.691
639.188  4239.007  1106.001  2274.375
639.325  4133.093  1000.737  2155.603
639.463  4250.554  1094.739  2262.082
639.600  4186.284  1063.639  2216.804
639.737  4218.524  1079.140  2216.733
639.874  4180.729  1017.938  2161.606
640.011  4220.999  1052.609  2213.198
640.148  4183.639  1011.128  2156.958
640.286  4179.040   990.768  2125.238
640.423  4166.380  1000.108  2126.618
640.560  4229.000  1054.048  2179.378
640.697  4190.980  1014.928  2121.838
640.834  4162.440   998.888  2119.379
640.971  4156.561  1028.148  2134.399
641.108  4168.261  1070.048  2150.279
641.245  4091.001   987.108  2091.299
641.383  4111.241  1040.688  2120.339
641.520  4037.401  1006.968  2082.359
641.657  4008.281  1002.308  2082.559
641.794  3976.681   996.148  2067.339
641.931  3987.162  1028.948  2107.259
642.068  3947.302  1013.208  2073.799
642.205  3976.422  1060.368  2120.379
642.342  3874.162   958.428  2030.239
642.479  3978.742  1037.588  2120.239
642.616  3817.242   919.288  1994.059
642.753  3911.863  1020.948  2073.919
642.890  3876.203   998.248  2063.320
643.027  3895.523  1010.228  2081.820
643.164  3806.483   939.628  1992.480
643.301  3874.323  1014.368  2065.260
643.438  3834.183   953.588  2017.880
643.575  3910.284  1033.968  2080.640
643.712  3831.224   971.767  2009.020
643.849  3907.784  1015.387  2071.340
643.986  3836.284   951.107  1997.600
644.123  3902.764   986.887  2024.340
644.260  3874.445   966.227  1999.740
644.397  3916.845   978.387  2014.440
644.534  3854.145   931.527  1973.100
644.671  3897.125   985.687  2008.840
644.808  3818.205   912.987  1933.220
644.945  3914.245  1000.627  2017.320
645.082  3825.226   934.587  1959.380
645.219  3892.706   984.427  2009.541
645.356  3812.686   944.887  1953.441
645.492  3864.406   995.147  2014.141
645.629  3781.986   930.807  1952.261
645.766  3802.186   974.887  1987.821
645.903  3703.547   924.787  1930.621
646.040  3715.207   916.547  1936.581
646.177  3627.427   863.247  1857.021
646.314  3721.487   961.007  1951.441
646.451  3591.827   863.407  1867.121
646.587  3665.287   950.587  1947.501
646.724  3629.427   937.047  1909.341
646.861  3640.968   945.127  1939.121
646.998  3550.368   870.666  1872.541
647.135  3682.428   965.006  1938.621
647.272  3563.068   872.526  1848.102
647.408  3697.208   995.686  1998.062
647.545  3617.189   935.806  1917.542
647.682  3700.529   991.546  1962.642
647.819  3665.169   938.046  1920.282
647.956  3717.469   985.426  1978.602
648.092  3623.909   884.786  1850.282
648.229  3748.909   992.806  1973.982
648.366  3656.570   882.586  1869.382
648.503  3751.670   960.766  1939.942
648.640  3681.370   916.666  1888.662
648.776  3729.270   957.726  1935.722
648.913  3663.270   885.006  1867.222
649.050  3718.391   931.186  1907.502
649.186  3677.091   884.926  1858.182
649.323  3712.391   914.466  1911.563
649.460  3661.031   868.066  1844.243
649.597  3762.311   990.426  1953.303
649.733  3621.831   885.046  1849.283
649.870  3672.511   923.886  1912.463
650.007  3601.452   880.446  1850.303
650.143  3628.252   905.326  1875.663
650.280  3595.432   880.445  1865.763
650.417  3613.692   898.825  1888.383
650.553  3574.372   884.485  1846.143
650.690  3604.233   912.585  1889.283
650.827  3565.133   906.765  1864.323
650.963  3626.733   969.185  1933.323
651.100  3490.833   852.005  1820.143
651.237  3595.873   927.445  1912.363
651.373  3517.914   854.885  1820.843
651.510  3584.974   912.225  1874.724
651.647  3559.874   898.825  1856.224
651.783  3672.994   987.465  1959.444
651.920  3585.014   885.285  1859.304
652.056  3670.154   974.285  1930.064
652.193  3568.915   859.325  1828.564
652.330  3629.615   925.225  1881.244
652.466  3629.055   909.485  1850.084
652.603  3680.235   950.025  1915.744
652.739  3620.575   890.705  1861.504
652.876  3680.655   938.945  1896.804
653.012  3674.436   928.185  1894.384
653.149  3730.036   988.925  1950.924
653.285  3584.136   829.205  1789.884
653.422  3720.936   984.665  1944.184
653.559  3624.536   870.924  1850.464
653.695  3668.856   917.984  1882.064
653.832  3599.656   890.384  1850.205
653.968  3641.257   924.224  1888.405
654.105  3606.217   891.144  1859.325
654.241  3622.517   909.924  1871.865
654.378  3580.397   901.904  1862.505
654.514  3633.438   958.064  1919.925
654.651  3546.058   873.264  1842.805
654.787  3616.858   954.824  1917.905
654.923  3488.418   844.464  1806.525
655.060  3603.338   945.184  1910.825
655.196  3507.458   866.904  1823.465
655.333  3623.259   978.544  1943.605
655.469  3546.719   909.084  1864.605
655.606  3590.899   921.144  1888.925
655.742  3523.699   865.484  1830.325
655.878  3593.219   924.104  1887.786
656.015  3597.339   938.044  1899.266
656.151  3655.439   976.304  1942.726
656.288  3564.100   888.384  1852.826
656.424  3626.720   940.404  1888.786
656.560  3611.240   904.724  1865.486
656.697  3702.860   966.624  1929.806
656.833  3564.420   834.644  1792.086
656.970  3703.901   950.583  1920.486
657.106  3659.021   907.403  1876.886
657.242  3732.721   961.943  1927.726
657.379  3674.041   899.123  1866.046
657.515  3710.521   957.283  1938.666
657.651  3656.562   898.503  1863.606
657.788  3724.001   960.443  1937.906
657.924  3657.282   908.203  1889.506
658.060  3714.222   955.643  1939.847
658.197  3635.782   885.843  1852.267
658.333  3731.822   975.083  1969.787
658.469  3643.922   904.103  1899.007
658.605  3667.783   921.603  1902.967
658.742  3604.543   871.303  1859.387
658.878  3686.683   942.983  1955.527
659.014  3651.583   933.383  1918.327
659.151  3690.043   951.223  1936.227
659.287  3602.104   875.803  1881.107
659.423  3666.004   909.563  1911.987
659.559  3645.944   904.423  1889.547
659.695  3669.504   903.763  1915.007
659.832  3643.524   879.963  1891.087
659.968  3704.764   949.863  1940.627
660.104  3644.544   872.463  1877.427
660.240  3737.125   939.703  1943.148
660.377  3651.325   842.662  1842.428
660.513  3772.805   948.322  1944.968
660.649  3712.625   887.082  1901.308
660.785  3768.225   937.602  1954.608
660.921  3703.506   892.922  1878.628
661.057  3681.846   899.182  1889.468
661.194  3593.286   882.162  1847.948
661.330  3524.206   880.322  1807.868
661.466  3457.606   883.342  1791.788
661.602  3437.866   864.282  1778.488
661.738  3398.386   837.862  1731.628
661.874  3426.587   872.922  1769.788
662.010  3320.707   813.182  1711.348
662.147  3362.247   865.562  1746.028
662.283  3298.047   806.582  1683.609
662.419  3326.448   840.262  1738.609
662.555  3266.408   826.402  1708.669
662.691  3325.148   876.642  1749.009
662.827  3202.948   793.282  1674.889
662.963  3279.248   854.762  1741.109
663.099  3224.108   814.222  1679.809
663.235  3240.269   860.982  1733.369
663.371  3203.189   812.842  1698.349
663.507  3297.009   923.982  1790.009
663.643  3208.609   832.461  1689.389
663.779  3259.089   885.661  1763.529
663.916  3170.049   800.481  1668.609
664.052  3233.649   867.701  1737.829
664.188  3170.370   794.601  1656.049
664.324  3264.410   880.321  1745.109
664.460  3197.030   811.681  1688.469
664.596  3236.250   857.241  1724.250
664.732  3168.370   782.221  1632.470
664.868  3262.811   846.261  1707.710
665.004  3229.871   824.621  1686.690
665.140  3283.851   870.701  1722.270
665.276  3197.731   785.301  1652.610
665.411  3237.291   824.921  1685.770
665.547  3138.231   727.001  1578.110
665.683  3257.372   839.301  1685.230
665.819  3213.012   816.741  1670.590
665.955  3264.152   861.401  1705.630
666.091  3111.752   725.701  1579.470
666.227  3233.912   866.981  1735.590
666.363  3155.452   789.081  1635.150
666.499  3182.053   813.281  1661.950
666.635  3142.133   802.801  1655.891
666.771  3197.493   861.301  1709.691
666.907  3048.393   742.221  1566.031
667.042  3147.353   835.641  1683.871
667.178  3062.713   752.860  1598.871
667.314  3108.274   819.200  1643.491
667.450  3049.814   766.340  1601.311
667.586  3178.634   896.400  1755.031
667.722  3043.114   786.460  1607.551
667.858  3083.134   827.580  1649.551
667.993  3075.175   817.340  1641.911
668.129  3089.435   830.960  1651.231
668.265  2995.435   723.920  1554.251
668.401  3094.335   826.380  1667.631
668.537  3045.775   774.860  1598.311
668.673  3122.675   854.720  1683.011
668.808  2997.355   709.820  1539.332
668.944  3076.116   792.160  1618.952
669.080  3032.456   732.640  1549.152
669.216  3108.416   827.720  1640.352
669.351  3067.536   778.560  1590.472
669.487  3110.417   822.820  1655.232
669.623  3065.977   770.700  1592.372
669.759  3127.597   822.060  1633.612
669.894  3040.977   748.980  1562.232
670.030  3071.297   779.440  1615.092
670.166  3074.617   777.240  1579.572
670.302  3087.157   801.500  1620.172
670.437  3046.218   799.019  1614.792
670.573  3009.638   743.099  1536.152
670.709  2998.078   752.419  1552.852
670.844  3115.198   866.959  1691.152
670.980  3033.338   813.219  1611.873
671.116  3094.958   882.459  1673.993
671.252  2946.139   758.779  1568.333
671.387  3004.159   804.799  1605.553
671.523  2961.499   788.379  1575.993
671.659  2989.359   808.799  1622.353
671.794  2923.619   755.479  1555.453
671.930  2939.260   784.179  1579.993
672.065  2872.780   708.199  1508.533
672.201  2978.900   828.739  1622.373
672.337  2924.980   775.159  1570.833
672.472  2972.800   823.539  1622.793
672.608  2938.720   795.459  1574.813
672.744  2981.021   825.179  1613.533
672.879  2919.601   781.679  1562.553
673.015  2977.161   823.139  1598.873
673.150  2911.261   753.339  1544.833
673.286  2994.101   834.639  1630.014
673.422  2939.601   770.459  1541.974
673.557  2992.622   824.939  1604.414
673.693  2878.642   726.799  1507.314
673.828  2990.542   801.298  1577.634
673.964  2933.222   758.838  1525.354
674.099  2968.282   779.918  1575.014
674.235  2933.583   768.098  1543.334
674.370  3002.823   827.298  1595.194
674.506  2855.303   695.078  1466.874
674.641  2904.783   745.778  1512.334
674.777  2887.103   748.878  1506.134
674.912  2960.363   808.958  1577.834
675.048  2877.263   750.638  1516.974
675.183  2936.444   809.058  1582.035
675.319  2858.844   741.058  1503.515
675.454  2929.104   818.458  1584.775
675.590  2805.664   716.038  1489.315
675.725  2931.044   850.498  1614.495
675.861  2801.005   729.658  1470.115
675.996  2896.725   821.838  1586.855
676.132  2807.205   745.038  1498.495
676.267  2909.585   860.158  1612.695
676.402  2798.405   758.198  1520.175
676.538  2844.085   808.878  1569.735
676.673  2802.625   758.478  1497.655
676.809  2830.146   784.958  1547.135
676.944  2782.726   759.898  1513.455
677.079  2872.286   822.637  1579.895
677.215  2794.726   751.037  1499.895
677.350  2873.046   833.297  1566.516
677.486  2807.146   766.397  1507.976
677.621  2845.527   791.357  1548.596
677.756  2770.727   742.697  1474.096
677.892  2856.267   810.517  1552.716
678.027  2761.727   734.617  1471.836
678.162  2863.307   811.697  1540.656
678.298  2791.568   744.897  1481.636
678.433  2840.808   786.217  1522.796
678.568  2802.788   777.377  1494.596
678.704  2832.488   777.597  1507.856
678.839  2810.588   767.797  1501.416
678.974  2860.348   802.237  1533.136
679.110  2777.689   753.657  1474.196
679.245  2851.949   799.777  1528.656
679.380  2774.209   748.277  1473.716
679.515  2771.369   737.997  1472.197
679.651  2712.969   687.717  1411.277
679.786  2785.389   794.397  1514.197
679.921  2742.530   749.377  1479.757
680.056  2813.430   825.117  1545.837
680.192  2700.830   747.477  1455.477
680.327  2798.010   826.997  1548.017
680.462  2646.950   681.356  1398.557
680.597  2761.450   799.756  1514.977
680.733  2705.491   756.556  1471.217
680.868  2741.611   780.676  1496.457
681.003  2658.211   713.176  1418.597
681.138  2703.911   763.476  1461.357
681.273  2694.111   751.776  1468.997
681.409  2648.172   718.836  1426.037
681.544  2632.412   706.636  1410.737
681.679  2699.252   770.856  1469.858
681.814  2636.272   724.256  1428.778
681.949  2723.092   799.296  1499.418
682.084  2622.732   689.536  1386.378
682.220  2694.973   762.456  1453.238
682.355  2647.753   723.596  1428.778
682.490  2638.213   714.656  1400.998
682.625  2644.833   720.176  1420.178
682.760  2667.113   742.036  1434.158
682.895  2669.493   744.136  1434.758
683.030  2740.314   800.836  1488.918
683.165  2695.414   774.596  1448.678
683.300  2719.174   783.176  1488.978
683.436  2648.134   733.316  1422.158
683.571  2688.354   781.836  1457.898
683.706  2633.814   728.716  1420.318
683.841  2681.155   778.795  1460.379
683.976  2660.255   751.935  1422.539
684.111  2693.475   797.515  1487.819
684.246  2628.275   738.535  1419.779
684.381  2685.215   785.975  1475.559
684.516  2668.875   788.515  1473.299
684.651  2650.916   767.035  1452.779
684.786  2636.676   767.095  1461.619
684.921  2688.856   821.135  1499.399
685.056  2583.816   727.395  1398.599
685.191  2693.197   841.395  1524.939
685.326  2577.877   735.495  1422.199
685.461  2638.737   799.795  1471.459
685.596  2580.117   742.915  1434.219
685.731  2607.537   769.915  1447.619
685.866  2579.097   742.835  1416.719
686.001  2631.537   795.415  1474.900
686.136  2563.838   737.395  1400.880
686.271  2613.938   776.955  1461.420
686.406  2604.078   775.795  1445.200
686.541  2621.758   791.035  1446.020
686.675  2553.018   718.295  1401.380
686.810  2599.039   753.235  1421.180
686.945  2596.439   757.455  1412.800
687.080  2651.079   829.034  1494.740
687.215  2552.219   729.454  1396.680
687.350  2623.539   795.314  1451.820
687.485  2523.659   701.594  1356.720
687.620  2656.419   828.454  1478.800
687.755  2558.120   735.394  1406.420
687.889  2634.560   795.454  1445.340
688.024  2579.800   759.754  1405.620
688.159  2558.260   726.654  1402.001
688.294  2506.720   688.794  1343.641
688.429  2604.460   782.874  1436.821
688.564  2491.141   686.834  1344.961
688.698  2583.841   787.334  1439.421
688.833  2532.861   747.634  1401.901
688.968  2519.001   735.934  1377.481
689.103  2491.881   720.754  1357.861
689.238  2528.822   763.554  1415.261
689.372  2467.442   701.654  1339.341
689.507  2517.342   764.154  1392.261
689.642  2497.262   763.334  1414.201
689.777  2560.742   826.274  1467.621
689.912  2437.662   704.454  1339.141
690.046  2545.163   806.414  1442.601
690.181  2470.923   736.294  1373.462
690.316  2507.643   776.453  1421.582
690.451  2446.083   718.353  1344.982
690.585  2508.383   792.833  1420.162
690.720  2436.803   729.073  1378.362
690.855  2437.284   711.933  1338.582
690.989  2465.804   749.293  1379.182
691.124  2480.524   752.933  1387.422
691.259  2405.264   686.453  1313.222
691.393  2468.244   745.473  1370.922
691.528  2469.745   754.373  1382.722
691.663  2494.785   770.573  1396.062
691.798  2427.505   698.633  1328.802
691.932  2479.125   754.093  1364.442
692.067  2413.385   694.173  1319.322
692.201  2477.225   748.873  1383.402
692.336  2420.345   690.113  1306.022
692.471  2457.166   746.153  1363.203
692.605  2406.466   699.493  1307.183
692.740  2464.046   750.573  1365.883
692.875  2408.306   693.773  1314.443
693.009  2433.566   728.753  1330.843
693.144  2435.167   747.173  1357.163
693.278  2420.287   729.713  1336.323
693.413  2386.987   712.293  1300.023
693.548  2409.567   728.213  1340.343
693.682  2345.227   684.013  1296.543
693.817  2415.787   744.612  1343.683
693.951  2332.448   700.972  1308.183
694.086  2396.468   747.172  1342.183
694.220  2292.328   646.632  1255.763
694.355  2368.908   741.052  1325.224
694.489  2332.088   699.192  1286.864
694.624  2390.428   765.272  1362.004
694.758  2317.409   689.192  1286.844
694.893  2387.969   773.832  1362.804
695.028  2289.309   673.552  1262.904
695.162  2345.869   734.872  1316.004
695.297  2267.889   674.732  1265.544
695.431  2303.850   705.452  1286.524
695.565  2335.590   726.932  1305.584
695.700  2349.610   749.132  1350.024
695.834  2317.370   720.292  1305.764
695.969  2308.170   698.852  1280.224
696.103  2312.271   737.032  1301.284
696.238  2334.451   723.532  1313.764
696.372  2301.891   716.652  1293.704
696.507  2351.831   748.712  1322.304
696.641  2263.811   663.012  1252.025
696.775  2275.511   689.432  1265.785
696.910  2257.591   680.512  1234.725
697.044  2308.672   720.511  1290.525
697.179  2249.812   659.451  1229.365
697.313  2304.412   720.631  1302.045
697.447  2253.732   661.651  1230.005
697.582  2295.852   693.551  1250.845
697.716  2203.573   624.091  1209.665
697.851  2281.913   710.911  1277.065
697.985  2246.113   690.951  1246.345
698.119  2331.413   775.311  1341.325
698.254  2220.473   669.091  1224.985
698.388  2233.773   681.851  1251.345
698.522  2187.793   638.291  1190.345
698.657  2219.274   677.711  1239.205
698.791  2229.874   709.431  1272.686
698.925  2243.294   713.271  1268.046
699.060  2154.734   634.011  1185.306
699.194  2282.834   781.671  1328.326
699.328  2066.594   566.151  1119.246
699.462  2213.835   716.671  1270.546
699.597  2174.115   693.191  1231.546
699.731  2196.055   697.091  1255.406
699.865  2107.475   626.631  1177.946
699.999  2133.655   651.851  1179.546
700.134  2146.976   678.131  1215.866
700.268  2190.696   706.831  1253.646
700.402  2100.016   624.090  1166.846
700.536  2147.956   680.690  1211.686
700.671  2123.036   643.410  1173.506
700.805  2193.536   719.410  1263.386
700.939  2100.457   634.950  1165.107
701.073  2175.957   694.850  1224.427
701.207  2071.197   600.530  1138.727
701.342  2150.617   683.530  1209.247
701.476  2113.017   632.650  1171.587
701.610  2125.758   664.490  1189.427
701.744  2122.418   660.850  1185.267
701.878  2157.618   689.050  1229.107
702.012  2076.218   622.770  1137.427
702.147  2133.158   666.910  1195.527
702.281  2100.578   649.430  1172.887
702.415  2098.019   656.490  1170.767
702.549  2073.679   633.190  1151.947
702.683  2090.179   653.530  1165.887
702.817  2039.279   616.630  1137.568
702.951  2100.779   673.850  1194.088
703.085  2054.239   635.030  1138.828
703.219  2122.540   700.430  1229.948
703.354  2048.920   643.270  1153.948
703.488  2037.900   627.470  1138.028
703.622  1963.620   570.209  1070.428
703.756  2079.600   683.829  1189.508
703.890  2020.180   641.689  1148.828
704.024  2089.321   697.309  1205.368
704.158  2011.901   654.949  1155.108
704.292  2040.881   670.249  1168.388
704.426  2024.941   663.069  1167.968
704.560  2034.561   674.509  1170.268
704.694  1984.561   627.989  1112.788
704.828  2048.162   691.269  1188.768
704.962  1950.222   598.309  1091.168
705.096  1977.462   631.369  1132.828
705.230  2022.162   668.729  1164.389
705.364  1998.722   645.509  1134.029
705.498  2005.563   661.749  1160.669
705.632  1980.843   634.689  1122.209
705.766  1980.103   638.169  1113.529
705.900  2040.783   697.369  1195.269
706.034  2006.063   668.969  1149.549
706.168  1992.063   645.029  1136.349
706.302  2005.823   659.129  1146.709
706.436  2007.304   658.269  1151.089
706.570  2003.044   657.809  1143.009
706.703  2014.324   669.149  1152.289
706.837  1999.124   665.008  1153.009
706.971  1971.464   646.008  1119.069
707.105  1968.265   642.668  1122.569
707.239  1974.505   651.708  1132.690
707.373  1864.545   547.028  1020.650
707.507  2039.785   726.868  1204.090
707.641  1942.005   617.968  1090.650
707.775  1960.345   644.668  1126.970
707.908  1906.666   611.308  1077.990
708.042  1903.866   617.688  1086.730
708.176  1916.046   622.568  1098.150
708.310  1962.946   681.788  1127.510
708.444  1865.626   601.688  1057.290
708.578  1916.526   642.548  1110.870
708.711  1878.987   627.848  1090.630
708.845  1959.547   701.088  1157.610
708.979  1896.907   630.348  1089.190
709.113  1951.407   705.888  1177.430
709.247  1845.847   614.108  1066.171
709.380  1938.688   680.688  1135.191
709.514  1848.388   627.608  1074.951
709.648  1950.908   705.248  1157.511
709.782  1906.788   680.568  1135.931
709.915  1938.068   709.788  1151.231
710.049  1829.028   605.948  1059.011
710.183  1891.908   664.128  1109.331
710.317  1864.969   650.527  1094.471
710.450  1888.209   674.427  1116.331
710.584  1784.429   578.767  1012.771
710.718  1897.689   685.587  1136.651
710.851  1811.849   604.587  1040.271
710.985  1887.550   684.667  1114.331
711.119  1815.110   604.207  1045.671
711.252  1879.810   672.347  1107.211
711.386  1844.210   626.747  1066.771
711.520  1836.890   625.087  1057.172
711.653  1815.450   604.367  1035.372
711.787  1933.451   723.667  1154.772
711.921  1798.911   604.787  1024.612
712.054  1826.231   636.707  1065.732
712.188  1798.151   611.407  1041.612
712.322  1908.631   710.647  1148.812
712.455  1810.151   630.747  1050.372
712.589  1882.512   700.687  1123.512
712.722  1828.152   659.667  1090.752
712.856  1864.652   704.487  1121.012
712.990  1791.532   625.767  1048.752
713.123  1811.972   662.347  1072.292
713.257  1788.152   633.807  1064.212
713.390  1841.433   699.466  1114.732
713.524  1738.733   609.786  1015.372
713.658  1797.053   658.806  1070.033
713.791  1728.693   594.826  1010.313
713.925  1766.573   641.046  1066.133
714.058  1740.073   618.326  1022.113
714.192  1802.414   678.146  1085.753
714.325  1728.674   622.066  1027.813
714.459  1828.554   714.746  1122.873
714.592  1728.094   626.326  1023.773
714.726  1840.134   740.986  1133.253
714.859  1688.594   591.406  1008.093
714.993  1831.195   730.766  1138.453
715.126  1702.115   611.486  1013.653
715.260  1773.335   669.846  1075.573
715.393  1740.375   640.186  1043.973
715.527  1724.375   631.746  1034.193
715.660  1647.976   572.966   957.594
715.793  1787.836   702.046  1092.134
715.927  1701.036   621.346  1011.054
716.060  1740.236   654.706  1051.634
716.194  1712.556   612.266  1012.254
716.327  1754.996   668.646  1052.514
716.461  1664.857   585.826   976.454
716.594  1715.797   640.066  1030.274
716.727  1659.077   579.985   974.154
716.861  1783.897   702.885  1083.454
716.994  1673.757   599.025   983.854
717.128  1740.977   673.185  1060.334
717.261  1680.118   618.845   997.494
717.394  1727.658   677.445  1052.974
717.528  1644.138   605.125   986.674
717.661  1709.638   652.665  1039.015
717.794  1662.258   615.445   992.315
717.928  1680.119   643.705  1018.135
718.061  1625.039   599.085   976.295
718.194  1665.999   626.265  1003.895
718.328  1648.119   617.845   992.855
718.461  1628.999   614.285   967.555
718.594  1582.379   566.145   941.875
718.728  1693.800   675.805  1054.055
718.861  1582.960   588.705   954.515
718.994  1655.760   654.005  1028.495
719.127  1615.900   618.325   982.815
719.261  1636.700   634.165  1009.995
719.394  1576.600   597.025   952.555
719.527  1631.021   651.305  1009.395
719.660  1572.701   596.725   952.295
719.794  1612.821   629.485   988.975
719.927  1572.021   595.705   953.596
720.060  1643.481   671.624  1021.716
720.193  1591.041   623.304   987.496
720.327  1648.762   669.924  1030.336
720.460  1583.862   601.564   956.156
720.593  1622.462   650.804  1010.496
720.726  1603.462   633.464   978.956
720.859  1664.762   687.444  1045.916
720.992  1522.943   554.844   903.576
721.126  1592.163   634.924   984.316
721.259  1543.543   579.244   917.176
721.392  1661.543   697.664  1045.756
721.525  1583.123   622.904   964.636
721.658  1612.303   665.504  1004.256
721.791  1581.384   635.164   978.496
721.925  1642.804   682.004  1026.636
722.058  1533.524   576.944   916.897
722.191  1554.844   609.964   949.217
722.324  1573.344   633.644   971.997
722.457  1632.144   687.804  1028.637
722.590  1548.905   605.544   948.077
722.723  1587.325   645.644   985.757
722.856  1581.905   646.104   978.137
722.989  1575.925   648.884   985.477
723.122  1508.125   595.964   926.177
723.255  1544.645   639.323   973.917
723.388  1514.246   617.963   937.737
723.522  1569.886   667.163   997.057
723.655  1501.486   610.123   932.157
723.788  1620.646   730.423  1054.337
723.921  1505.706   616.463   937.977
724.054  1581.126   699.323  1025.618
724.187  1517.007   643.263   976.558
724.320  1570.907   690.283  1013.438
724.453  1508.387   630.563   948.418
724.586  1546.707   679.323   993.458
724.719  1483.267   618.683   945.438
724.852  1564.347   702.523  1008.618
724.985  1516.688   655.543   969.098
725.118  1535.448   677.623   995.498
725.250  1544.168   697.663  1017.418
725.383  1558.848   712.083  1024.518
725.516  1527.088   668.523   967.798
725.649  1527.249   680.503   994.298
725.782  1507.189   669.403   976.078
725.915  1534.369   693.483  1001.698
726.048  1493.789   642.943   946.598
726.181  1494.569   637.163   948.839
726.314  1484.789   645.223   952.999
726.447  1542.030   688.143   994.939
726.580  1523.190   680.742   982.659
726.713  1557.710   711.322  1008.739
726.845  1456.410   625.682   930.899
726.978  1529.990   689.462   990.119
727.111  1448.470   611.062   902.999
727.244  1544.551   704.482  1010.439
727.377  1479.051   654.982   959.539
727.510  1579.611   755.762  1057.439
727.642  1458.591   634.342   923.939
727.775  1498.751   690.142   984.899
727.908  1431.651   626.242   910.259
728.041  1499.932   684.842   980.759
728.174  1370.412   557.802   846.819
728.307  1479.472   673.482   966.600
728.439  1455.872   663.962   961.320
728.572  1465.472   667.262   954.540
728.705  1427.573   652.142   945.140
728.838  1508.953   721.822  1005.920
728.970  1400.533   620.222   912.120
729.103  1471.893   694.822   978.140
729.236  1381.453   613.202   898.200
729.369  1449.153   681.182   963.440
729.501  1366.654   607.322   886.880
729.634  1441.954   674.602   957.680
729.767  1365.014   617.002   895.620
729.899  1406.514   642.781   917.640
730.032  1390.754   646.521   921.600
730.165  1407.814   652.221   936.160
730.298  1382.775   623.141   899.920
730.430  1435.415   680.761   960.141
730.563  1367.155   614.281   884.441
730.696  1460.255   709.021   982.861
730.828  1324.755   572.501   837.161
730.961  1424.575   677.281   948.201
731.094  1400.856   644.921   917.021
731.226  1409.056   665.301   934.241
731.359  1413.856   662.101   939.781
731.491  1405.096   654.681   919.181
731.624  1318.696   580.041   839.481
731.757  1389.316   641.761   899.101
731.889  1357.497   614.141   886.721
732.022  1379.557   644.621   903.181
732.154  1420.257   683.801   946.861
732.287  1376.497   637.541   889.741
732.420  1319.237   581.881   848.881
732.552  1404.458   682.621   935.222
732.685  1345.738   622.241   873.882
732.817  1418.938   694.921   958.822
732.950  1371.398   645.021   900.742
733.082  1403.678   686.641   951.682
733.215  1319.618   608.500   857.862
733.347  1350.139   644.020   896.762
733.480  1312.699   606.920   858.742
733.612  1424.759   725.420   983.842
733.745  1257.819   564.680   806.202
733.878  1351.179   664.060   913.662
734.010  1274.359   588.320   839.862
734.143  1372.780   688.780   941.422
734.275  1317.520   642.360   892.362
734.407  1368.560   700.740   936.942
734.540  1314.760   637.520   892.302
734.672  1344.860   671.760   911.103
734.805  1286.920   617.640   865.123
734.937  1379.861   711.760   952.683
735.070  1247.541   586.300   836.943
735.202  1397.641   726.260   974.523
735.335  1343.841   685.360   932.043
735.467  1336.841   686.680   926.583
735.599  1261.281   600.760   838.763
735.732  1383.622   713.380   962.483
735.864  1326.582   673.260   914.103
735.997  1370.542   715.620   947.383
736.129  1232.442   570.360   807.583
736.261  1374.862   721.620   956.923
736.394  1217.022   561.859   799.843
736.526  1315.983   661.739   900.483
736.658  1227.003   563.879   806.464
736.791  1295.443   653.359   887.344
736.923  1303.163   657.359   889.764
737.055  1280.923   621.439   866.124
737.188  1260.744   609.719   835.924
737.320  1331.804   678.799   898.504
737.452  1240.824   597.959   829.784
737.585  1347.064   712.459   944.484
737.717  1233.604   599.119   823.404
737.849  1285.864   650.139   868.204
737.982  1232.725   601.639   830.144
738.114  1300.485   684.879   898.264
738.246  1235.985   614.859   842.664
738.378  1355.025   735.759   951.744
738.511  1212.445   601.439   825.464
738.643  1275.265   666.919   875.865
738.775  1217.866   604.119   825.105
738.907  1272.786   669.159   887.325
739.039  1245.146   650.719   864.245
739.172  1244.406   658.059   872.645
739.304  1214.806   626.699   844.365
739.436  1216.426   626.999   849.485
739.568  1187.547   602.279   808.485
739.701  1282.427   706.638   922.565
739.833  1191.067   626.758   830.785
739.965  1233.287   658.218   875.805
740.097  1187.827   613.458   818.925
740.229  1225.487   654.618   859.925
740.361  1173.628   611.458   811.805
740.493  1275.568   709.598   923.105
740.626  1132.808   578.658   778.005
740.758  1275.568   708.598   921.125
740.890  1166.788   607.758   812.486
741.022  1223.089   665.618   869.166
741.154  1234.809   673.978   873.006
741.286  1273.229   704.618   904.426
741.418  1231.769   663.938   870.026
741.550  1222.969   657.678   860.546
741.682  1192.369   635.418   838.826
741.815  1227.030   666.458   853.806
741.947  1222.370   661.138   871.286
742.079  1285.070   728.918   926.806
742.211  1167.270   614.438   814.666
742.343  1240.250   683.858   873.426
742.475  1197.830   644.438   848.546
742.607  1232.471   669.718   868.146
742.739  1236.371   683.738   890.246
742.871  1202.591   651.037   846.826
743.003  1198.971   654.157   847.707
743.135  1266.431   709.677   910.127
743.267  1183.831   640.377   837.787
743.399  1284.312   739.077   931.207
743.531  1138.772   612.537   795.147
743.663  1231.232   694.157   883.507
743.795  1131.592   592.417   786.447
743.927  1237.292   713.857   904.747
744.059  1153.333   619.757   808.667
744.191  1180.733   652.677   845.007
744.323  1194.013   669.817   851.247
744.455  1174.653   651.717   846.007
744.587  1180.473   657.457   843.587
744.718  1173.473   658.857   852.807
744.850  1113.453   601.637   782.487
744.982  1150.594   639.237   824.448
745.114  1111.334   593.077   781.848
745.246  1201.934   679.537   869.768
745.378  1050.814   541.457   724.808
745.510  1164.134   653.777   836.588
745.642  1161.415   651.137   836.728
745.774  1165.135   658.017   844.748
745.905  1110.195   602.737   774.908
746.037  1166.275   660.757   841.228
746.169  1112.255   609.436   785.588
746.301  1193.155   685.376   869.528
746.433  1112.756   615.676   792.568
746.565  1147.736   649.836   830.508
746.696  1125.256   625.396   809.188
746.828  1194.896   685.496   864.668
746.960  1148.316   644.896   823.428
747.092  1105.917   603.916   779.708
747.224  1139.217   642.856   829.689
747.355  1191.417   696.136   864.209
747.487  1124.757   624.036   798.009
747.619  1146.157   642.696   817.389
747.751  1079.817   585.856   758.349
747.882  1156.657   664.556   835.049
748.014  1085.038   602.036   776.109
748.146  1201.058   713.036   879.869
748.278  1109.078   620.156   790.989
748.409  1081.698   598.996   768.769
748.541  1135.578   653.736   824.069
748.673  1122.899   641.936   806.089
748.804  1071.879   584.536   756.309
748.936  1178.719   690.436   865.369
749.068  1071.779   595.556   768.149
749.199  1114.499   639.776   806.730
749.331  1117.779   639.055   814.930
749.463  1138.820   673.135   844.270
749.594  1086.440   609.755   784.250
749.726  1123.560   651.675   824.330
749.858  1076.800   613.835   779.830
749.989  1149.320   685.175   847.910
750.121  1013.540   551.735   718.170
750.253  1150.721   691.455   858.330
750.384  1071.501   615.255   776.970
750.516  1089.041   634.055   800.530
750.647  1053.621   603.535   760.890
750.779  1082.561   634.255   802.910
750.911  1047.381   600.915   770.070
751.042  1112.982   665.675   832.750
751.174  1088.802   637.895   795.250
751.305  1101.082   643.375   813.211
751.437  1060.302   611.235   773.111
751.568  1061.562   605.795   783.171
751.700  1047.563   597.395   758.491
751.832  1134.523   681.435   843.051
751.963  1063.103   622.595   777.531
752.095  1124.643   669.935   835.611
752.226  1022.363   574.955   738.911
752.358  1053.463   602.475   761.591
752.489  1041.323   601.435   759.671
752.621  1110.004   657.875   813.591
752.752  1031.004   583.994   736.791
752.884  1086.264   647.434   817.011
753.015  1057.924   613.634   770.551
753.146  1130.904   677.714   844.691
753.278  1083.325   643.654   798.411
753.409  1079.565   641.014   801.352
753.541  1048.445   613.334   769.952
753.672  1137.565   702.054   859.932
753.804  1042.765   604.354   759.772
753.935  1134.505   691.714   859.332
754.067  1065.026   630.334   789.692
754.198  1127.806   694.954   840.972
754.329  1002.066   572.854   726.592
754.461  1120.906   689.274   851.672
754.592  1044.986   623.434   769.672
754.723  1117.566   695.934   845.532
754.855   988.727   572.734   720.672
754.986  1088.827   673.634   823.112
755.118  1005.027   592.334   744.412
755.249  1068.907   655.534   793.332
755.380  1015.027   606.114   754.292
755.512  1091.068   679.654   834.353
755.643   991.968   580.734   727.393
755.774  1087.248   680.534   823.333
755.906  1043.268   644.693   786.033
756.037  1086.968   675.173   817.453
756.168  1024.608   625.433   770.713
756.299  1102.109   697.673   848.033
756.431  1010.729   618.993   760.453
756.562  1052.029   650.333   793.953
756.693  1009.389   611.793   756.093
756.825  1065.809   661.953   808.773
756.956   963.289   562.453   709.713
757.087  1119.590   716.613   862.913
757.218  1061.150   664.993   804.293
757.349  1070.910   685.033   823.893
757.481   998.530   605.293   752.893
757.612  1066.450   672.973   808.094
757.743  1024.570   637.113   773.514
757.874  1026.911   635.373   775.834
758.006  1012.531   628.133   764.154
758.137  1078.291   682.093   814.974
758.268  1027.351   633.413   780.894
758.399  1128.791   726.373   867.814
758.530  1061.971   674.533   811.814
758.661  1057.492   670.233   806.434
758.793  1005.472   611.653   761.074
758.924  1067.112   676.573   812.134
759.055  1009.432   627.953   773.974
759.186  1077.832   683.952   822.434
759.317  1019.552   632.392   775.674
759.448  1083.413   695.672   832.674
759.579   943.833   570.252   704.895
759.710  1054.073   670.572   802.155
759.842   970.253   593.292   736.275
759.973  1002.473   629.632   761.935
760.104   999.773   633.332   766.635
760.235  1072.614   688.352   818.695
760.366   941.494   570.332   704.215
760.497  1028.734   661.272   793.315
760.628   925.534   569.892   697.095
760.759  1053.214   681.412   810.615
760.890   957.835   607.132   738.775
761.021   999.795   629.272   762.055
761.152   884.675   534.972   660.575
761.283  1013.135   655.932   778.895
761.414   932.835   579.652   710.755
761.545   975.895   625.072   754.255
761.676   931.836   583.252   714.656
761.807  1051.136   699.372   824.436
761.938   969.576   621.532   752.296
762.069   980.236   627.152   753.116
762.200   915.836   575.632   702.056
762.331  1027.336   683.091   809.856
762.462   889.437   545.471   673.456
762.593  1054.357   709.191   831.716
762.724  1076.957   723.991   850.636
762.855  1085.437   739.871   863.396
762.986   981.137   641.491   767.036
763.117  1055.037   720.151   840.216
763.247   984.738   642.071   767.716
763.378  1109.878   761.111   884.756
763.509   981.638   646.151   772.316
763.640  1045.878   711.891   824.917
763.771   994.698   659.471   782.537
763.902  1110.818   775.551   887.357
764.033   968.019   637.411   756.237
764.164  1039.699   707.211   826.157
764.294   983.079   648.351   771.177
764.425  1048.579   710.911   829.557
764.556   910.179   587.891   708.917
764.687  1032.740   704.571   817.957
764.818   916.640   593.511   708.277
764.949   994.080   671.311   789.857
765.079   906.940   579.591   697.977
765.210  1050.080   729.211   841.517
765.341   913.640   590.451   711.817
765.472   938.361   611.091   733.337
765.603   981.501   660.470   784.417
765.733   981.521   658.330   772.737
765.864   904.461   587.790   707.198
765.995   964.441   647.130   765.058
766.126   903.021   583.090   703.518
766.256   934.462   616.990   738.278
766.387   970.122   660.370   772.698
766.518   963.982   656.710   766.878
766.649   870.542   558.090   677.098
766.779   976.302   662.370   777.478
766.910   870.742   569.170   677.678
767.041   905.203   601.510   711.578
767.171   879.103   574.090   690.138
767.302   967.723   665.750   783.598
767.433   914.003   616.730   725.198
767.563   940.223   640.310   752.538
767.694   896.264   600.170   708.478
767.825   882.784   582.630   696.859
767.955   842.764   546.870   651.099
768.086   949.644   652.350   755.159
768.217   918.204   629.990   734.399
768.347   941.064   643.070   756.679
768.478   855.665   552.750   670.819
768.608   905.925   608.930   715.359
768.739   888.345   594.349   701.139
768.870   988.585   691.109   798.399
769.000   898.025   606.489   706.859
769.131  1000.725   705.849   815.879
769.261   869.366   577.409   677.159
769.392   941.926   649.829   757.519
769.523   845.166   555.949   659.219
769.653   964.946   673.449   779.579
769.784   881.686   594.029   690.599
769.914   896.946   613.469   719.880
770.045   883.527   600.369   701.980
770.175   880.227   590.349   696.080
770.306   822.007   549.709   645.100
770.436   942.327   654.029   753.760
770.567   930.347   645.589   745.480
770.697   888.907   605.909   710.380
770.828   864.588   578.489   685.360
770.958   902.668   614.029   723.840
771.089   865.068   590.009   685.980
771.219   875.068   599.649   694.980
771.350   860.068   591.929   687.500
771.480   925.209   649.429   750.480
771.610   856.609   590.049   685.460
771.741   900.249   627.529   726.020
771.871   832.789   571.569   668.220
772.002   891.109   623.748   724.221
772.132   814.629   555.308   646.041
772.263   875.190   617.748   709.421
772.393   830.690   575.468   670.101
772.523   891.630   635.488   734.061
772.654   787.930   527.928   633.201
772.784   903.990   648.328   740.381
772.914   801.710   544.688   642.281
773.045   859.511   608.888   698.161
773.175   841.711   591.648   685.501
773.306   841.131   586.428   681.981
773.436   862.531   600.728   696.281
773.566   876.511   627.528   720.441
773.697   804.631   558.948   654.081
773.827   804.732   553.008   647.281
773.957   781.372   532.268   629.001
774.087   910.732   653.968   744.902
774.218   846.572   591.468   692.622
774.348   864.312   611.868   705.702
774.478   816.273   567.208   664.642
774.609   864.793   614.008   704.722
774.739   750.633   505.028   599.262
774.869   859.313   611.988   697.402
774.999   815.433   572.308   664.582
775.130   877.853   640.547   727.962
775.260   815.794   571.047   660.922
775.390   873.334   632.667   725.982
775.520   794.994   554.827   644.382
775.651   821.754   582.507   667.042
775.781   790.654   551.567   645.222
775.911   816.794   567.007   660.002
776.041   722.615   485.447   566.283
776.171   849.235   614.107   707.143
776.302   812.595   574.767   663.083
776.432   845.055   606.287   699.063
776.562   804.995   569.847   647.023
776.692   833.335   600.447   692.243
776.822   793.836   558.627   638.483
776.952   817.516   585.827   667.103
777.082   769.976   541.107   626.503
777.213   822.636   599.087   687.023
777.343   757.396   534.167   612.743
777.473   837.156   612.387   695.543
777.603   797.537   571.847   647.843
777.733   789.817   564.267   644.323
777.863   826.417   603.747   685.903
777.993   821.637   597.247   675.783
778.123   780.097   560.227   647.564
778.253   848.797   631.767   719.804
778.383   751.998   537.366   619.544
778.513   833.298   609.026   698.364
778.643   759.418   542.386   628.884
778.773   834.098   615.066   695.304
778.904   788.638   573.506   651.124
779.034   852.919   638.266   713.324
779.164   794.219   578.886   662.404
779.294   805.699   598.846   673.144
779.424   738.419   525.106   611.324
779.554   823.039   608.166   683.484
779.684   763.879   557.466   635.304
779.814   804.700   595.386   672.684
779.944   806.780   605.426   684.024
780.073   828.140   609.506   689.024
780.203   789.020   580.346   658.924
780.333   802.840   595.846   671.525
780.463   719.160   507.846   592.265
780.593   873.601   671.826   745.705
780.723   742.321   534.526   607.205
780.853   827.001   624.046   698.345
780.983   807.141   615.526   688.365
781.113   796.001   599.266   674.425
781.243   754.901   556.326   620.125
781.373   803.382   600.486   676.645
781.503   701.722   504.186   576.205
781.633   831.042   625.385   709.525
781.762   726.522   530.805   599.285
781.892   749.522   549.805   621.525
782.022   791.862   595.585   666.665
782.152   790.643   591.065   669.266
782.282   766.043   570.085   648.126
782.412   797.643   594.765   664.326
782.541   716.963   522.705   595.366
782.671   820.543   620.845   697.446
782.801   720.004   526.465   601.026
782.931   771.244   576.325   642.886
783.061   738.704   550.205   632.206
783.190   801.884   617.025   689.626
783.320   718.164   526.425   597.366
783.450   758.924   571.165   641.546
783.580   733.345   546.525   621.006
783.710   747.025   562.925   626.486
783.839   660.525   475.865   543.346
783.969   814.625   626.945   695.266
784.099   674.125   499.285   569.866
784.229   759.465   571.005   638.206
784.358   689.306   509.765   580.027
784.488   756.526   573.865   642.807
784.618   764.766   585.125   659.887
784.747   794.506   612.424   679.287
784.877   704.686   526.564   592.387
785.007   767.066   589.304   657.747
785.136   707.867   526.044   594.047
785.266   755.047   573.144   640.867
785.396   677.227   501.684   574.507
785.525   779.767   607.444   674.927
785.655   681.627   506.464   571.787
785.785   725.948   546.784   614.807
785.914   743.868   564.764   634.607
786.044   723.628   546.124   609.407
786.174   648.868   471.424   540.207
786.303   711.408   533.804   602.508
786.433   710.568   534.784   597.468
786.562   803.529   626.224   691.728
786.692   694.269   525.864   589.568
786.822   739.229   568.864   637.788
786.951   676.289   513.604   574.308
787.081   752.369   579.784   646.628
787.210   684.749   518.864   583.048
787.340   763.150   588.504   650.508
787.469   726.170   552.644   620.848
787.599   748.590   577.024   639.388
787.728   695.310   530.024   599.188
787.858   688.770   526.744   592.708
787.987   684.750   519.663   584.328
788.117   701.351   541.663   600.808
788.246   718.711   551.023   615.688
788.376   688.131   524.723   587.969
788.505   673.451   515.283   570.489
788.635   712.951   554.823   615.109
788.764   654.171   486.043   558.209
788.894   750.512   593.983   654.789
789.023   684.592   529.123   586.289
789.153   752.092   594.563   648.389
789.282   729.692   576.943   637.149
789.412   694.052   535.563   600.129
789.541   657.852   503.263   564.709
789.670   722.133   567.403   621.489
789.800   602.633   461.263   515.749
789.929   682.053   530.643   591.189
790.059   659.393   508.163   569.989
790.188   686.213   537.223   593.529
790.317   645.474   495.623   550.309
790.447   654.394   502.603   566.109
790.576   672.074   524.523   582.290
790.706   684.994   546.223   598.670
790.835   702.954   554.483   615.790
790.964   702.514   551.083   610.430
791.094   645.535   495.203   553.190
791.223   713.415   565.622   622.890
791.352   627.095   481.382   540.090
791.482   696.995   554.762   607.310
791.611   678.635   532.802   589.050
791.740   700.375   544.582   598.230
791.869   606.716   467.702   522.150
791.999   681.756   535.682   593.030
792.128   654.016   510.722   563.850
792.257   702.056   553.922   607.250
792.386   646.396   496.622   558.850
792.516   680.076   530.942   582.671
792.645   682.697   542.542   603.511
792.774   694.157   549.582   600.531
792.903   632.857   493.882   545.951
793.033   727.337   586.802   636.071
793.162   658.057   518.382   567.411
793.291   694.958   557.042   610.851
793.420   626.058   485.942   541.131
793.549   716.878   577.162   626.531
793.679   640.238   506.642   557.091
793.808   684.438   541.962   592.191
793.937   620.978   483.942   535.451
794.066   661.499   526.462   575.351
794.195   591.139   449.062   498.431
794.325   716.939   578.081   634.771
794.454   652.859   522.261   565.292
794.583   654.999   524.721   575.192
794.712   646.639   513.901   556.852
794.841   689.880   555.561   608.512
794.970   671.920   539.461   595.752
795.099   722.380   594.661   641.152
795.228   674.280   546.061   594.752
795.357   713.780   579.341   628.032
795.487   656.880   527.341   578.192
795.616   730.081   597.521   648.612
795.745   614.301   483.341   531.252
795.874   684.161   555.421   607.612
796.003   665.021   540.441   591.292
796.132   676.621   545.921   598.232
796.261   599.841   484.301   525.432
796.390   696.982   577.461   624.292
796.519   667.002   550.321   589.852
796.648   685.342   566.541   605.433
796.777   637.022   513.541   564.053
796.906   652.342   535.941   577.233
797.035   675.703   541.781   586.053
797.164   685.443   568.061   613.813
797.293   597.003   476.041   525.873
797.422   698.623   575.461   625.053
797.551   607.423   487.100   536.253
797.680   704.743   582.580   630.913
797.809   687.204   565.660   612.573
797.938   672.584   553.000   598.073
798.067   658.404   539.620   580.413
798.195   668.744   543.920   591.933
798.324   612.144   501.560   543.613
798.453   737.444   621.420   664.433
798.582   629.645   510.040   556.393
798.711   707.765   581.800   631.594
798.840   633.025   523.680   563.854
798.969   665.845   552.060   591.074
799.098   634.565   515.160   556.234
799.227   712.205   594.700   637.614
799.356   669.946   560.800   597.394
799.484   734.026   617.960   664.534
799.613   615.246   496.200   541.534
799.742   672.666   558.940   609.674
799.871   643.926   535.840   570.074
800.000   692.386   577.200   615.454
800.128   712.907   604.820   643.294
800.257   690.687   575.200   613.854
800.386   665.547   548.120   589.454
800.515   658.867   542.420   584.414
800.644   618.107   504.719   549.734
800.772   710.448   600.659   639.955
800.901   625.748   512.999   560.555
801.030   710.468   595.059   638.615
801.159   633.768   529.079   567.955
801.287   643.808   536.359   576.035
801.416   648.668   538.799   579.795
801.545   644.549   531.039   575.155
801.674   618.429   519.899   562.555
801.802   674.169   568.059   606.535
801.931   613.649   503.239   548.095
802.060   674.989   565.219   614.815
802.188   653.109   544.619   585.775
802.317   670.870   567.879   604.435
802.446   669.450   564.659   602.215
802.575   644.290   534.659   579.455
802.703   623.910   525.199   559.236
802.832   706.590   600.199   637.616
802.960   618.090   519.199   560.996
803.089   702.211   591.479   631.676
803.218   623.771   521.519   555.896
803.346   682.131   583.359   619.576
803.475   654.311   552.239   591.256
803.604   660.551   556.779   595.756
803.732   568.891   471.019   505.356
803.861   688.091   588.419   628.016
803.989   646.331   548.819   589.176
804.118   629.031   525.359   567.936
804.247   613.491   521.179   554.716
804.375   735.551   636.199   670.376
804.504   592.951   493.939   536.736
804.632   655.871   560.339   598.556
804.761   622.431   526.439   561.316
804.889   644.811   542.759   587.276
805.018   580.151   482.679   523.856
805.146   688.071   591.079   627.596
805.275   608.031   514.799   553.136
805.403   686.471   588.399   623.776
805.532   691.091   590.479   631.456
805.660   705.191   606.459   640.976
805.789   655.091   562.259   598.836
805.917   672.231   579.519   620.056
806.046   622.831   532.239   566.296
806.174   705.251   610.679   647.916
806.303   643.791   551.519   585.036
806.431   667.991   573.939   613.436
806.560   654.491   562.379   593.996
806.688   678.911   582.859   627.896
806.816   632.551   536.279   572.716
806.945   716.831   627.539   654.956
807.073   618.811   529.239   565.556
807.202   672.551   579.939   613.416
807.330   668.011   578.499   612.616
807.458   695.231   604.839   641.856
807.587   598.651   501.359   536.516
807.715   619.311   529.019   556.916
807.843   638.091   543.899   579.076
807.972   623.131   532.799   570.776
808.100   592.231   498.119   537.716
808.228   632.931   544.399   571.576
808.357   578.311   498.159   529.556
808.485   633.251   548.019   581.136
808.613   560.191   473.019   500.076
808.742   656.111   567.359   601.136
808.870   599.771   514.659   547.056
808.998   652.771   567.059   602.136
809.127   594.531   506.999   538.276
809.255   635.411   553.419   585.356
809.383   596.571   522.979   548.016
809.511   621.371   535.419   570.436
809.640   558.451   476.819   509.896
809.768   655.751   574.639   608.216
809.896   614.871   531.579   563.796
810.024   663.611   586.339   612.636
810.153   628.071   544.199   574.876
810.281   686.951   603.239   636.556
810.409   581.631   504.739   530.596
810.537   648.831   566.119   588.996
810.665   615.071   535.299   566.876
810.794   614.251   533.359   561.716
810.922   536.131   447.099   481.256
811.050   642.571   564.299   589.236
811.178   597.711   517.279   543.116
811.306   603.631   525.819   553.916
811.434   602.351   519.099   550.796
811.563   610.091   536.799   565.436
811.691   548.251   467.479   504.736
811.819   601.951   527.959   558.396
811.947   611.831   535.799   558.396
812.075   656.131   576.759   607.676
812.203   614.171   531.719   563.736
812.331   630.691   551.579   583.576
812.459   592.251   517.359   552.076
812.587   643.511   567.779   593.896
812.716   585.671   505.719   538.016
812.844   597.731   523.159   556.516
812.972   499.811   422.159   452.916
813.100   638.811   565.339   590.536
813.228   583.631   502.599   529.496
813.356   666.971   591.399   619.096
813.484   611.451   537.739   561.456
813.612   593.911   517.379   541.536
813.740   587.671   508.899   539.796
813.868   645.551   572.319   600.136
813.996   629.431   557.879   588.096
814.124   617.231   544.479   573.476
814.252   539.911   467.959   499.336
814.380   620.511   547.839   576.616
814.508   581.391   503.459   529.916
814.636   627.571   554.259   579.056
814.764   538.951   464.039   494.056
814.892   615.731   541.599   570.396
815.019   551.231   483.999   508.916
815.147   623.631   556.659   580.036
815.275   562.051   491.199   513.776
815.403   590.671   519.659   546.136
815.531   537.831   461.299   487.536
815.659   588.851   521.559   547.976
815.787   526.831   457.579   489.036
815.915   637.471   569.859   596.576
816.043   540.991   471.079   503.396
816.171   573.251   498.959   527.156
816.298   522.251   451.679   477.336
816.426   545.611   476.459   507.976
816.554   513.191   441.579   465.116
816.682   587.111   521.259   549.176
816.810   549.891   482.419   508.776
816.938   593.211   524.539   547.936
817.065   523.331   457.559   487.896
817.193   549.771   484.079   510.576
817.321   515.531   454.779   481.776
817.449   586.831   518.579   547.816
817.577   512.851   445.839   470.616
817.704   626.991   563.459   587.536
817.832   572.631   504.539   528.436
817.960   573.091   513.619   536.196
818.088   528.491   463.839   489.356
818.215   567.811   504.819   522.556
818.343   537.731   468.479   490.516
818.471   568.651   503.399   533.336
818.599   547.171   485.959   503.876
818.726   569.211   506.239   528.016
818.854   508.391   442.559   469.836
818.982   570.751   505.179   533.416
819.109   556.471   496.739   519.016
819.237   558.111   499.139   525.116
819.365   531.831   467.579   492.656
819.492   617.431   554.579   577.136
819.620   509.771   454.639   476.656
819.748   571.631   506.879   535.236
819.875   502.751   441.419   469.176
820.003   591.571   526.139   553.856
820.131   538.691   472.399   499.216
820.258   573.431   508.699   533.656
820.386   527.131   464.719   485.736
820.513   554.831   492.399   519.336
820.641   515.891   453.719   478.556
820.769   574.451   512.939   538.836
820.896   507.791   445.659   471.156
821.024   572.431   514.959   533.616
821.151   486.371   428.179   449.456
821.279   503.331   452.039   467.716
821.406   515.851   459.179   478.896
821.534   508.691   449.319   477.996
821.661   528.111   465.039   490.516
821.789   526.391   467.419   493.476
821.917   472.871   418.579   440.656
822.044   572.691   516.099   537.336
822.172   483.131   428.199   450.936
822.299   595.331   534.639   555.016
822.427   480.111   422.779   450.676
822.554   536.731   485.899   502.396
822.682   462.091   403.999   425.536
822.809   532.371   474.099   488.976
822.936   480.591   422.719   440.796
823.064   582.891   526.399   548.016
823.191   526.851   477.219   488.776
823.319   570.871   521.399   541.096
823.446   551.871   493.059   513.036
823.574   579.931   527.459   547.356
823.701   491.251   444.059   467.236
823.828   552.671   495.439   512.516
823.956   505.011   453.919   471.516
824.083   512.191   464.659   484.696
824.211   459.551   411.619   429.776
824.338   543.771   487.899   510.476
824.465   472.471   418.759   437.656
824.593   488.511   430.519   460.676
824.720   460.631   406.219   428.236
824.847   489.991   433.579   453.116
824.975   443.711   395.059   413.836
825.102   507.311   458.619   484.296
825.229   439.231   393.799   416.596
825.357   519.891   466.539   492.876
825.484   489.891   439.759   456.336
825.611   598.871   552.279   561.076
825.739   463.911   418.459   439.856
825.866   522.491   463.039   486.296
825.993   459.571   416.279   433.136
826.120   542.851   489.719   511.876
826.248   465.231   417.379   435.996
826.375   527.891   477.119   498.556
826.502   462.311   415.099   432.676
826.629   563.171   513.899   531.656
826.757   450.331   394.459   418.416
826.884   491.791   445.399   464.956
827.011   441.811   396.659   412.276
827.138   485.971   432.539   452.256
827.266   460.851   416.339   432.536
827.393   518.411   472.979   495.076
827.520   437.391   392.639   404.776
827.647   541.331   497.139   517.276
827.774   473.491   431.819   446.936
827.901   484.731   435.519   456.316
828.029   453.531   412.819   432.776
828.156   485.151   436.919   457.296
828.283   430.591   385.139   403.896
828.410   514.091   466.239   492.536
828.537   456.431   413.959   426.676
828.664   493.931   448.199   463.376
828.791   436.991   391.359   416.436
828.918   519.391   477.379   492.476
829.045   509.071   461.579   482.556
829.173   489.051   440.159   459.796
829.300   481.911   440.099   463.296
829.427   470.831   423.959   447.076
829.554   477.971   432.419   451.156
829.681   538.971   486.939   512.696
829.808   443.131   389.319   414.436
829.935   483.771   435.359   462.056
830.062   479.911   431.139   449.156
830.189   502.771   454.319   475.536
830.316   465.351   427.579   441.256
830.443   508.171   462.559   474.396
830.570   422.211   381.159   398.476
830.697   494.751   449.239   467.916
830.824   436.931   394.999   415.476
830.951   515.911   475.459   487.496
831.078   472.271   422.259   443.556
831.205   519.891   472.499   494.656
831.332   451.931   408.959   426.876
831.459   550.871   508.539   524.936
831.586   478.951   430.799   454.436
831.713   509.171   468.659   480.656
831.839   435.751   388.779   409.036
831.966   509.191   462.919   477.976
832.093   491.371   446.559   470.396
832.220   534.331   491.299   505.456
832.347   497.091   452.739   473.696
832.474   498.671   457.399   476.736
832.601   459.071   416.079   433.896
832.728   501.931   465.219   481.676
832.855   496.351   448.359   470.436
832.981   529.691   492.159   505.596
833.108   497.791   453.779   470.016
833.235   523.991   481.379   496.856
833.362   446.171   403.799   422.396
833.489   516.171   473.939   490.356
833.616   471.971   422.639   443.336
833.742   506.151   465.939   480.916
833.869   516.251   474.379   491.856
833.996   514.931   470.739   488.636
834.123   490.151   447.139   460.716
834.249   558.171   516.479   533.436
834.376   494.991   452.819   471.716
834.503   551.571   507.859   527.836
834.630   479.051   439.959   457.956
834.756   515.251   471.079   490.036
834.883   494.611   457.179   469.756
835.010   572.631   535.959   545.356
835.137   460.311   423.099   434.496
835.263   499.151   458.639   474.196
835.390   468.551   432.859   449.656
835.517   545.531   510.239   520.316
835.643   457.771   420.999   435.116
835.770   549.751   514.479   524.316
835.897   471.831   430.759   448.396
836.023   526.811   490.739   499.116
836.150   495.091   450.119   474.176
836.277   565.191   529.519   548.476
836.403   468.911   428.819   448.416
836.530   549.591   505.619   534.296
836.657   490.811   450.119   467.116
836.783   542.091   507.779   516.756
836.910   471.171   436.719   454.416
837.036   535.531   496.939   511.276
837.163   481.151   445.159   465.576
837.290   565.511   532.399   545.896
837.416   499.931   461.079   480.296
837.543   533.831   496.379   516.896
837.669   526.651   484.479   495.976
837.796   534.231   490.639   511.536
837.922   508.991   462.339   485.396
838.049   519.191   480.459   496.976
838.176   498.691   469.579   485.996
838.302   515.311   471.459   488.636
838.429   451.071   415.799   430.856
838.555   530.851   496.139   503.556
838.682   470.791   432.479   449.256
838.808   539.731   500.139   521.456
838.935   449.271   417.199   431.956
839.061   580.571   544.519   556.536
839.188   526.471   478.719   502.116
839.314   540.391   498.899   518.576
839.440   486.831   443.679   461.096
839.567   549.991   513.959   534.996
839.693   517.991   487.939   500.136
839.820   549.771   515.339   535.016
839.946   501.071   464.659   483.636
840.073   534.591   501.679   514.616
840.199   481.971   449.499   458.516
840.325   541.331   509.659   519.856
840.452   496.311   461.719   472.536
840.578   558.711   523.399   537.936
840.705   487.011   453.839   467.116
840.831   572.671   536.299   551.376
840.957   515.471   486.499   498.636
841.084   507.611   477.559   489.576
841.210   490.811   461.859   476.176
841.336   474.571   447.999   456.736
841.463   484.171   450.899   464.916
841.589   481.751   445.019   466.416
841.715   427.951   399.699   413.616
841.842   564.351   533.559   550.176
841.968   474.591   446.739   456.996
842.094   539.891   504.299   518.356
842.220   499.071   473.879   488.136
842.347   544.691   514.319   535.416
842.473   474.211   445.639   456.936
842.599   507.511   474.779   491.096
842.725   460.611   435.219   446.096
842.852   543.371   510.019   525.616
842.978   460.251   429.679   442.236
843.104   515.311   481.719   495.796
843.230   530.091   505.079   517.376
843.357   529.031   491.899   504.556
843.483   501.851   469.979   483.396
843.609   510.811   479.859   494.656
843.735   467.531   433.819   450.236
843.861   528.691   499.279   513.116
843.987   445.191   415.799   429.776
844.114   567.351   536.259   546.556
844.240   480.931   455.979   461.236
844.366   501.711   463.519   479.576
844.492   482.071   453.099   467.176
844.618   503.751   470.099   485.116
844.744   435.051   402.439   417.716
844.870   494.751   469.119   483.556
844.997   442.771   409.759   416.376
845.123   495.151   465.539   481.196
845.249   478.931   445.979   457.156
845.375   492.851   465.979   480.256
845.501   455.331   424.779   439.216
845.627   483.931   444.979   465.216
845.753   431.871   402.659   414.716
845.879   480.471   450.059   471.356
846.005   400.931   372.379   387.616
846.131   478.511   448.899   464.056
846.257   487.151   456.899   468.696
846.383   475.771   445.619   458.336
846.509   481.751   460.159   468.936
846.635   485.011   460.179   466.456
846.761   455.111   425.099   446.256
846.887   482.391   450.879   463.656
847.013   418.171   388.899   401.176
847.139   445.651   419.119   427.776
847.265   460.451   435.039   449.076
847.391   484.151   453.599   472.496
847.517   439.631   413.359   418.476
847.643   471.331   440.219   452.116
847.769   431.111   404.699   414.956
847.895   466.191   436.019   447.736
848.021   472.151   446.179   460.856
848.147   450.211   423.179   433.376
848.273   383.391   361.079   369.996
848.399   472.571   442.199   456.956
848.524   412.271   389.279   395.396
848.650   565.991   537.999   550.356
848.776   421.411   395.319   411.496
848.902   467.291   442.999   449.956
849.028   470.131   449.439   454.956
849.154   486.091   455.719   467.816
849.280   444.011   413.699   428.616
849.405   502.151   474.359   485.896
849.531   438.151   406.079   416.496
849.657   519.531   491.199   503.936
849.783   416.691   391.399   403.776
849.909   488.071   460.859   473.256
850.034   429.631   399.199   417.356
850.160   508.391   487.419   494.536
850.286   439.431   409.479   421.796
850.412   489.491   462.099   473.256
850.538   402.651   375.499   393.476
850.663   512.331   477.459   500.276
850.789   403.551   378.719   390.796
850.915   506.871   483.559   494.196
851.041   442.731   423.179   425.996
851.166   476.911   453.339   462.516
851.292   429.111   398.579   412.076
851.418   506.611   479.279   501.696
851.543   424.371   397.199   408.956
851.669   496.111   472.039   484.936
851.795   433.391   411.719   424.016
851.920   482.251   455.799   467.136
852.046   455.811   430.619   446.076
852.172   504.391   482.079   490.196
852.297   456.711   428.159   436.376
852.423   500.971   475.819   486.336
852.549   444.351   416.239   427.376
852.674   516.611   489.099   502.216
852.800   396.671   372.039   384.836
852.926   515.871   487.539   500.616
853.051   416.651   389.699   404.156
853.177   496.551   470.139   482.756
853.302   392.831   366.359   377.076
853.428   517.471   490.899   502.696
853.553   434.191   411.059   423.276
853.679   531.151   505.939   519.976
853.805   473.131   452.959   460.376
853.930   525.451   497.979   507.256
854.056   459.331   439.059   446.336
854.181   521.011   501.659   508.076
854.307   447.231   420.139   428.456
854.432   457.891   440.819   452.996
854.558   490.991   466.719   477.496
854.683   497.731   473.159   481.356
854.809   441.911   416.019   426.556
854.934   486.531   467.519   471.276
855.060   460.711   429.679   445.176
855.185   472.691   452.959   461.396
855.311   511.931   489.199   496.516
855.436   461.471   440.939   447.216
855.562   428.271   408.739   419.596
855.687   481.051   459.899   465.296
855.812   451.091   430.839   443.956
855.938   474.731   448.779   461.336
856.063   408.651   385.539   396.476
856.189   519.191   496.199   503.956
856.314   465.731   438.159   453.416
856.439   507.891   478.619   492.356
856.565   470.951   436.819   453.296
856.690   487.991   472.119   480.076
856.816   426.991   401.879   412.376
856.941   395.491   376.139   384.236
857.066   428.831   404.799   418.016
857.192   456.531   437.039   447.116
857.317   486.431   464.219   469.596
857.442   450.591   433.819   441.676
857.568   500.151   479.399   489.536
857.693   437.471   415.639   422.916
857.818   483.191   456.999   468.276
857.943   488.351   461.299   473.456
858.069   428.571   401.199   414.456
858.194   469.291   451.059   453.136
858.319   384.511   363.179   377.736
858.445   456.931   437.259   446.636
858.570   390.831   372.419   376.636
858.695   465.191   446.599   455.396
858.820   482.931   463.519   472.036
858.946   475.791   449.519   467.336
859.071   483.251   463.099   470.696
859.196   466.051   443.199   457.176
859.321   396.611   374.179   377.796
859.446   472.991   453.279   461.756
859.572   418.031   398.419   409.396
859.697   471.191   453.799   464.836
859.822   444.171   430.479   434.996
859.947   450.991   430.399   441.676
860.072   360.751   342.719   353.216
860.197   466.971   447.659   459.956
860.323   428.831   406.759   413.436
860.448   474.291   454.459   459.776
860.573   392.051   374.499   378.136
860.698   416.331   396.739   407.496
860.823   437.591   417.479   422.996
860.948   457.471   438.339   442.476
861.073   374.251   354.639   362.856
861.198   435.891   413.099   420.836
861.323   382.951   364.199   371.716
861.449   421.571   396.979   413.116
861.574   416.771   399.499   408.576
861.699   435.451   417.739   427.356
861.824   431.031   405.259   418.316
861.949   387.051   366.439   372.156
862.074   404.631   384.979   393.596
862.199   427.791   409.659   420.596
862.324   367.031   344.379   352.796
862.449   430.031   414.459   425.696
862.574   398.831   381.039   386.776
862.699   441.451   424.419   427.976
862.824   365.291   345.679   357.316
862.949   448.291   437.299   443.536
863.074   382.731   359.159   369.736
863.199   397.991   379.659   391.096
863.324   414.411   392.639   405.276
863.449   403.711   384.059   396.076
863.574   357.231   339.859   348.116
863.698   389.751   374.919   383.876
863.823   425.451   404.819   416.456
863.948   424.551   404.179   415.776
864.073   393.811   376.219   381.816
864.198   416.091   395.619   405.596
864.323   365.731   348.679   358.156
864.448   399.151   377.219   387.016
864.573   355.671   336.719   347.136
864.698   451.171   430.499   439.156
864.822   324.471   308.239   315.936
864.947   399.491   378.519   389.856
865.072   400.391   379.579   384.016
865.197   463.491   442.199   453.116
865.322   393.011   373.979   382.116
865.447   437.311   416.479   425.956
865.571   419.071   398.779   409.516
865.696   445.551   423.939   431.936
865.821   400.571   378.859   393.016
865.946   399.071   373.899   381.236
866.071   345.211   328.699   335.196
866.195   449.551   429.219   432.996
866.320   406.851   386.999   398.516
866.445   431.071   413.279   424.976
866.570   378.991   358.919   366.676
866.694   441.811   423.999   433.516
866.819   416.311   402.539   407.436
866.944   447.331   430.879   435.076
867.068   388.351   371.139   376.836
867.193   442.151   432.319   442.096
867.318   379.031   363.739   372.916
867.443   437.811   420.899   427.416
867.567   390.291   376.939   383.856
867.692   438.951   422.359   430.056
867.817   358.111   341.039   353.876
867.941   439.591   427.839   427.276
868.066   381.611   356.659   371.316
868.191   442.691   430.579   437.356
868.315   379.711   361.099   367.896
868.440   421.511   405.439   409.316
868.564   365.071   351.979   356.316
868.689   434.091   416.519   425.296
868.814   396.351   379.359   391.916
868.938   469.511   457.279   461.636
869.063   388.711   374.179   377.616
869.187   448.311   433.219   447.116
869.312   413.891   394.779   402.816
869.436   426.251   408.039   421.136
869.561   426.291   413.539   419.716
869.686   404.951   383.919   395.696
869.810   371.911   359.739   361.416
869.935   437.611   427.059   432.276
870.059   364.671   349.179   359.216
870.184   430.511   414.919   427.956
870.308   379.111   365.819   374.496
870.433   430.171   417.219   418.916
870.557   388.631   377.499   385.276
870.682   449.351   432.659   443.356
870.806   363.471   343.459   354.956
870.931   433.511   418.139   428.376
871.055   402.251   383.859   389.516
871.179   435.711   418.859   423.856
871.304   349.471   339.559   347.176
871.428   448.591   435.499   444.816
871.553   384.891   367.039   376.176
871.677   439.291   426.499   436.256
871.802   386.391   370.619   378.096
871.926   408.091   393.459   403.416
872.050   369.231   355.899   359.636
872.175   438.151   423.499   435.296
872.299   403.671   395.559   402.576
872.423   454.311   439.539   446.856
872.548   374.431   355.019   364.776
872.672   446.611   433.879   442.696
872.797   401.291   384.739   388.256
872.921   453.411   435.819   447.436
873.045   375.751   360.719   365.876
873.169   421.151   407.199   414.116
873.294   386.731   371.419   378.016
873.418   429.771   417.599   426.196
873.542   396.311   386.679   390.536
873.667   411.211   394.639   403.116
873.791   421.551   404.399   413.616
873.915   420.491   403.959   418.116
874.039   404.011   390.299   394.736
874.164   488.031   475.439   478.036
874.288   413.711   396.779   405.776
874.412   472.951   460.419   471.696
874.536   407.171   393.319   406.056
874.661   473.371   466.539   471.736
874.785   415.271   399.559   406.916
874.909   416.051   400.519   411.376
875.033   402.671   391.579   395.496
875.157   480.011   462.599   473.676
875.282   398.291   380.079   390.736
875.406   462.951   453.439   456.256
875.530   381.511   369.159   374.056
875.654   462.311   447.399   458.756
875.778   453.591   438.719   442.836
875.902   434.511   423.059   421.796
876.027   430.611   419.999   427.796
876.151   481.951   467.919   473.856
876.275   423.211   412.959   418.036
876.399   469.691   454.819   464.396
876.523   409.871   396.399   401.276
876.647   467.311   450.519   466.476
876.771   400.731   390.499   395.876
876.895   448.851   435.639   443.476
877.019   458.511   437.619   446.916
877.143   450.111   435.959   444.616
877.267   447.911   433.839   442.996
877.391   489.471   481.359   486.136
877.516   396.931   390.339   396.316
877.640   459.371   448.919   452.416
877.764   417.191   405.839   410.456
877.888   448.671   441.119   447.136
878.012   378.331   370.039   372.096
878.136   429.771   417.499   431.456
878.260   419.391   408.319   412.356
878.384   502.111   491.839   492.716
878.508   375.091   365.279   371.756
878.631   440.011   432.899   439.516
878.755   469.071   449.599   460.016
878.879   449.051   434.959   442.836
879.003   419.031   407.139   410.496
879.127   479.491   471.619   468.896
879.251   393.291   382.839   385.556
879.375   447.911   431.519   440.536
879.499   401.131   393.279   396.576
879.623   463.511   451.239   462.816
879.747   439.251   422.379   433.056
879.871   516.431   504.299   515.756
879.995   420.271   411.319   417.816
880.118   492.691   481.299   486.036
880.242   428.591   416.459   424.756
880.366   468.831   456.359   465.356
880.490   403.411   395.239   398.176
880.614   488.671   473.539   483.276
880.738   377.811   369.519   378.056
880.861   513.591   494.939   503.816
880.985   421.011   412.759   415.916
881.109   459.951   451.919   453.956
881.233   439.411   429.859   432.836
881.357   480.191   465.139   468.216
881.480   441.171   430.119   431.916
881.604   502.531   493.799   496.576
881.728   418.711   399.719   408.276
881.852   489.951   473.059   475.976
881.975   445.171   432.439   441.776
882.099   477.731   459.779   472.216
882.223   442.891   434.659   443.016
882.347   467.191   448.039   460.756
882.470   438.111   426.539   434.976
882.594   499.991   480.139   486.956
882.718   434.811   424.599   430.416
882.841   474.131   459.719   467.116
882.965   418.851   404.199   414.016
883.089   511.971   503.439   507.876
883.212   421.611   406.099   411.716
883.336   500.771   489.159   497.536
883.460   413.671   401.399   409.076
883.583   475.671   465.259   468.496
883.707   440.471   427.459   438.776
883.831   441.951   431.759   442.396
883.954   455.191   452.559   457.676
884.078   485.071   477.539   486.556
884.201   436.751   427.519   427.416
884.325   529.331   512.539   518.076
884.449   461.491   450.779   458.876
884.572   477.191   470.459   470.036
884.696   495.251   480.759   490.336
884.819   473.751   469.499   473.516
884.943   446.391   430.239   439.976
885.066   543.271   533.919   536.156
885.190   459.711   443.919   456.776
885.313   495.951   489.319   490.236
885.437   441.791   429.519   436.836
885.560   505.711   497.379   499.316
885.684   506.431   495.979   501.196
885.807   489.491   478.279   485.276
885.931   458.731   445.899   452.056
886.054   552.811   542.799   551.016
886.178   426.551   415.279   416.856
886.301   494.911   480.399   489.556
886.425   413.231   402.579   413.976
886.548   494.291   477.319   481.136
886.672   506.651   499.539   503.556
886.795   511.051   494.799   501.956
886.918   435.291   424.679   424.676
887.042   496.551   486.499   492.416
887.165   393.231   383.439   389.216
887.289   534.371   521.659   531.716
887.412   478.611   466.539   474.076
887.535   533.431   521.759   532.176
887.659   503.891   498.979   500.636
887.782   476.191   472.239   474.596
887.905   490.531   480.619   487.356
888.029   478.491   468.919   474.676
888.152   441.451   436.079   444.056
888.275   509.691   496.099   498.276
888.399   486.651   477.979   480.176
888.522   485.591   479.239   485.336
888.645   491.231   480.679   491.556
888.769   491.951   483.059   487.796
888.892   477.551   476.759   474.676
889.015   469.111   464.819   467.916
889.139   487.991   476.539   483.936
889.262   503.791   499.039   501.016
889.385   441.351   432.099   436.776
889.508   552.111   546.739   553.236
889.632   460.531   450.079   456.316
889.755   528.511   519.679   526.196
889.878   453.151   447.879   457.156
890.001   449.331   439.099   443.656
890.124   453.071   443.999   449.036
890.248   467.891   466.159   463.256
890.371   416.891   407.839   413.256
890.494   494.991   484.939   488.496
890.617   461.791   453.339   456.876
890.740   464.411   453.939   461.456
890.863   478.111   459.719   465.036
890.987   438.811   427.879   434.336
891.110   456.891   443.539   452.156
891.233   497.231   491.239   495.856
891.356   450.031   440.499   446.376
891.479   538.791   528.919   531.116
891.602   387.571   385.999   390.196
891.725   473.251   468.299   473.976
891.848   423.371   413.559   421.756
891.971   455.451   446.759   453.396
892.095   436.251   428.399   433.916
892.218   475.691   472.639   473.436
892.341   475.791   464.479   472.836
892.464   473.371   462.779   476.676
892.587   372.091   366.579   373.336
892.710   439.131   429.779   436.916
892.833   460.851   446.279   451.096
892.956   467.391   457.959   466.436
893.079   375.251   361.419   366.216
893.202   426.131   413.459   419.876
893.325   375.511   365.699   371.316
893.448   436.411   429.779   430.016
893.571   401.331   388.259   399.476
893.694   455.911   447.419   447.836
893.817   378.371   376.119   375.876
893.940   483.251   472.479   481.836
894.063   395.671   383.939   399.456
894.185   461.551   457.979   462.376
894.308   421.271   411.679   418.036
894.431   406.071   406.519   400.616
894.554   370.951   362.399   371.216
894.677   418.971   406.119   417.816
894.800   429.651   423.659   429.516
894.923   525.331   517.599   521.336
895.046   402.311   394.119   400.896
895.169   433.171   430.059   426.496
895.292   442.411   436.979   438.836
895.414   481.671   472.699   477.016
895.537   334.691   327.739   331.276
895.660   412.711   403.179   410.236
895.783   403.611   395.439   400.236
895.906   430.331   426.659   424.556
896.029   408.651   401.939   408.376
896.151   434.731   423.759   431.376
896.274   485.251   478.519   486.616
896.397   423.851   411.999   413.696
896.520   366.571   356.179   362.316
896.642   444.171   440.699   443.736
896.765   388.251   381.559   384.436
896.888   478.511   469.419   475.236
897.011   385.631   376.479   381.576
897.133   426.891   415.419   426.296
897.256   384.571   379.339   382.776
897.379   439.271   431.999   436.916
897.502   385.071   375.819   380.076
897.624   440.951   435.719   442.016
897.747   405.951   398.839   403.176
897.870   410.931   398.279   405.556
897.992   387.171   378.579   386.276
898.115   428.131   416.339   423.416
898.238   403.891   395.119   396.236
898.360   440.191   429.999   432.056
898.483   374.111   368.899   365.036
898.606   446.091   439.759   447.656
898.728   354.511   347.319   348.236
898.851   407.371   397.439   400.076
898.973   409.051   397.459   402.196
899.096   388.091   384.699   392.576
899.219   355.051   345.619   354.196
899.341   454.451   448.019   455.016
899.464   487.051   480.999   482.596
899.586   461.431   449.639   454.296
899.709   427.631   419.659   432.336
899.832   492.531   486.099   491.076
899.954   396.591   394.439   393.116
900.077   506.771   496.039   507.916
900.199   428.591   423.799   431.396
900.322   488.071   479.059   485.016
900.444   476.931   462.759   467.716
900.567   454.471   444.139   446.456
900.689   415.311   407.059   408.476
900.812   438.871   433.619   435.616
900.934   408.971   401.999   401.776
901.057   468.791   464.379   470.396
901.179   390.031   380.999   386.036
901.302   471.931   466.479   470.716
901.424   413.011   402.159   406.796
901.546   490.951   485.019   495.416
901.669   415.651   410.579   410.756
901.791   464.311   460.379   462.196
901.914   419.091   411.579   414.616
902.036   480.251   467.039   480.436
902.158   360.971   354.819   359.876
902.281   458.151   452.859   457.596
902.403   367.751   359.079   362.216
902.526   494.611   486.619   490.136
902.648   393.091   384.639   390.716
902.770   455.471   448.339   452.276
902.893   387.911   387.179   387.376
903.015   445.771   441.019   441.876
903.137   396.931   390.799   396.136
903.260   455.531   444.539   454.036
903.382   333.331   330.159   333.076
903.504   429.551   424.379   432.636
903.627   379.231   375.979   375.936
903.749   439.931   430.199   435.816
903.871   393.691   386.259   395.196
903.993   394.411   395.599   399.396
904.116   371.071   371.859   373.576
904.238   431.251   426.219   430.996
904.360   415.571   405.139   414.176
904.482   440.751   436.299   438.896
904.605   417.911   400.439   410.856
904.727   407.691   402.419   404.776
904.849   343.751   341.279   344.576
904.971   447.631   443.079   440.836
905.094   372.671   368.439   372.676
905.216   433.811   423.119   436.836
905.338   402.791   398.859   408.456
905.460   437.851   431.939   437.596
905.582   463.271   457.799   466.696
905.704   446.251   444.139   445.096
905.826   405.951   400.139   404.436
905.949   477.351   470.679   475.676
906.071   392.611   387.019   389.336
906.193   455.951   456.939   461.716
906.315   399.071   389.959   396.796
906.437   457.251   449.199   449.316
906.559   413.231   400.719   410.296
906.681   440.071   437.099   441.196
906.803   394.391   390.179   396.056
906.925   440.291   435.159   436.816
907.047   425.771   422.339   423.676
907.170   442.251   430.759   437.976
907.292   347.231   341.939   346.996
907.414   412.811   401.639   406.576
907.536   402.011   386.699   393.136
907.658   446.411   439.439   443.276
907.780   356.991   352.099   359.556
907.902   446.191   431.039   442.476
908.024   421.851   420.579   420.556
908.146   447.911   439.379   451.776
908.268   414.431   414.519   420.036
908.390   440.351   429.479   431.616
908.512   428.831   424.199   426.936
908.634   485.011   477.599   486.796
908.755   428.331   422.039   425.856
908.877   452.891   446.639   449.296
908.999   406.251   396.159   408.216
909.121   465.171   453.459   461.196
909.243   440.011   429.539   431.396
909.365   478.891   473.739   479.576
909.487   443.391   438.419   438.476
909.609   444.031   442.639   445.056
909.731   397.191   392.199   393.976
909.853   461.511   456.019   456.136
909.975   425.391   418.459   420.076
910.096   460.211   447.899   459.076
910.218   433.051   421.659   431.816
910.340   428.271   424.859   433.056
910.462   403.991   396.099   400.436
910.584   483.991   476.619   483.796
910.706   416.531   408.739   416.696
910.827   451.371   438.959   445.716
910.949   416.131   410.679   414.816
911.071   493.111   483.539   490.276
911.193   385.891   378.899   382.936
911.314   473.311   460.679   468.256
911.436   434.631   431.799   439.616
911.558   446.991   439.999   447.056
911.680   397.651   394.799   391.796
911.801   460.371   447.139   450.916
911.923   454.451   447.459   451.436
912.045   485.771   479.859   484.096
912.167   436.071   438.239   439.896
912.288   487.951   482.299   487.196
912.410   392.471   389.339   386.136
912.532   469.171   460.239   467.116
912.653   380.411   372.979   376.476
912.775   492.111   488.939   493.036
912.897   414.191   411.119   414.416
913.018   476.651   478.119   474.436
913.140   460.511   452.559   459.376
913.262   438.151   435.359   438.676
913.383   440.751   437.639   433.696
913.505   496.271   493.979   498.816
913.627   396.951   393.939   400.916
913.748   440.191   434.839   438.516
913.870   481.971   475.019   479.276
913.991   519.711   515.839   516.016
914.113   413.371   409.299   417.756
914.234   460.631   453.379   460.336
914.356   415.231   408.079   414.316
914.478   507.471   499.219   502.676
914.599   420.271   408.459   417.876
914.721   494.531   489.259   493.436
914.842   408.671   402.459   405.236
914.964   456.191   454.679   460.736
915.085   415.711   409.479   407.696
915.207   430.511   429.279   436.676
915.328   507.311   501.599   502.536
915.450   519.571   508.279   514.876
915.571   440.111   425.319   434.476
915.693   489.251   481.059   481.456
915.814   424.171   416.579   425.476
915.936   498.611   490.639   491.196
916.057   416.231   415.239   419.956
916.178   500.851   498.699   495.976
916.300   438.731   439.499   438.416
916.421   442.771   437.759   450.556
916.543   486.191   483.719   477.996
916.664   495.011   485.659   495.516
916.786   430.751   426.219   427.136
916.907   465.951   464.079   466.076
917.028   410.731   401.039   408.356
917.150   524.751   519.119   523.976
917.271   413.731   407.279   406.916
917.392   480.151   474.219   475.056
917.514   489.371   485.439   490.376
917.635   445.291   438.299   443.036
917.756   466.911   462.099   461.476
917.878   504.611   502.379   500.736
917.999   404.771   403.399   408.416
918.120   473.231   474.559   471.876
918.242   364.651   358.599   367.096
918.363   483.511   479.539   481.496
918.484   444.531   441.459   443.816
918.605   437.671   437.879   433.776
918.727   418.751   416.619   416.596
918.848   512.331   510.679   513.516
918.969   387.651   386.019   388.436
919.090   490.871   485.119   489.016
919.212   463.871   457.139   459.236
919.333   479.571   479.799   482.636
919.454   390.071   395.059   394.036
919.575   460.811   460.439   465.856
919.696   415.451   419.899   418.456
919.818   487.651   479.619   487.536
919.939   418.991   410.399   410.536
920.060   461.231   459.259   465.116
920.181   389.111   383.559   388.056
920.302   496.891   488.179   497.976
920.423   433.931   427.119   431.596
920.545   470.851   462.539   463.416
920.666   452.491   443.579   448.236
920.787   450.051   446.139   456.416
920.908   422.651   413.819   416.296
921.029   450.391   448.419   455.936
921.150   460.751   458.459   462.796
921.271   472.391   463.519   472.936
921.392   392.171   390.199   389.876
921.513   435.771   431.259   437.956
921.634   436.191   430.819   433.996
921.755   455.971   453.899   458.876
921.877   390.071   381.539   387.536
921.998   474.371   470.219   473.736
922.119   394.491   380.419   383.956
922.240   464.231   458.099   469.356
922.361   413.411   408.179   415.516
922.482   470.591   463.679   464.356
922.603   424.471   417.279   417.976
922.724   442.591   436.559   439.476
922.845   451.991   447.179   447.856
922.966   431.991   431.859   436.016
923.086   404.911   403.299   404.576
923.207   444.391   445.699   444.216
923.328   369.051   364.199   369.836
923.449   449.411   443.619   449.036
923.570   381.331   373.799   376.456
923.691   440.071   435.719   443.476
923.812   421.071   423.199   418.556
923.933   406.151   398.459   409.216
924.054   341.511   338.219   341.516
924.175   484.751   474.599   480.296
924.296   373.571   371.219   371.676
924.416   453.091   446.859   456.976
924.537   461.151   461.959   463.556
924.658   408.991   405.319   406.116
924.779   362.371   352.719   358.576
924.900   447.091   447.039   452.516
925.021   443.851   438.919   436.996
925.141   451.671   443.299   450.216
925.262   388.011   382.259   391.836
925.383   410.551   408.299   409.136
925.504   437.891   430.939   432.916
925.625   483.531   472.259   478.616
925.745   486.571   481.099   483.796
925.866   417.091   418.839   420.936
925.987   405.471   406.379   409.076
926.108   469.031   464.679   464.636
926.228   440.791   432.419   442.536
926.349   413.271   414.599   414.296
926.470   426.631   425.379   424.736
926.591   487.631   482.819   491.736
926.711   372.611   364.379   372.416
926.832   440.251   434.439   432.836
926.953   408.431   403.039   408.836
927.073   488.111   481.119   481.676
927.194   380.891   373.679   385.356
927.315   449.191   448.139   450.616
927.435   409.411   406.539   408.256
927.556   447.871   443.959   449.616
927.677   397.511   400.279   400.936
927.797   446.991   448.179   446.216
927.918   403.651   403.179   401.936
928.038   471.431   464.819   471.636
928.159   418.471   423.359   425.556
928.280   415.731   409.239   408.436
928.400   398.831   394.439   390.476
928.521   455.571   449.499   449.316
928.641   372.751   370.079   373.716
928.762   459.671   455.299   454.376
928.882   393.391   395.419   391.656
929.003   453.971   450.499   452.876
929.123   380.931   375.179   380.356
929.244   441.731   436.879   442.496
929.365   414.031   413.979   418.336
929.485   464.951   459.499   462.756
929.606   443.131   435.059   441.236
929.726   432.071   428.059   425.756
929.846   347.891   347.399   348.536
929.967   415.771   414.139   421.556
930.087   417.351   412.179   412.756
930.208   440.911   438.399   441.556
930.328   418.531   414.699   417.776
930.449   431.511   430.559   427.136
930.569   363.751   358.299   361.376
930.690   454.971   453.819   456.716
930.810   391.691   388.219   395.076
930.930   397.811   388.179   394.796
931.051   408.171   405.499   412.376
931.171   452.231   447.459   452.056
931.292   401.231   395.359   405.656
931.412   414.131   405.539   409.836
931.532   348.591   349.159   350.676
931.653   406.431   395.899   405.936
931.773   399.711   403.959   404.636
931.893   445.431   445.099   447.576
932.014   375.751   367.279   373.756
932.134   432.111   437.639   437.496
932.254   390.731   388.859   397.676
932.375   440.811   435.159   443.876
932.495   452.671   452.139   448.916
932.615   428.731   429.079   434.336
932.735   400.251   395.839   405.776
932.856   505.271   499.879   500.956
932.976   388.251   384.439   387.796
933.096   446.291   451.099   449.556
933.216   396.011   392.979   400.436
933.337   475.851   473.039   478.876
933.457   374.831   372.579   376.276
933.577   461.351   460.759   463.356
933.697   427.051   420.159   425.396
933.818   450.271   450.879   451.716
933.938   447.831   447.739   451.636
934.058   454.011   448.279   453.836
934.178   375.651   374.819   374.716
934.298   438.851   433.219   436.056
934.418   383.031   383.419   389.336
934.539   417.091   416.219   418.476
934.659   354.931   350.779   355.356
934.779   421.531   410.639   415.996
934.899   371.591   360.679   363.956
935.019   461.071   455.279   459.856
935.139   449.651   449.739   449.356
935.259   417.291   417.619   417.156
935.379   392.971   393.999   398.876
935.500   492.251   491.979   494.016
935.620   428.371   423.359   428.196
935.740   478.891   475.939   481.516
935.860   376.671   376.299   375.976
935.980   432.211   434.039   432.736
936.100   396.031   389.599   400.216
936.220   443.311   443.459   446.256
936.340   414.371   415.799   415.976
936.460   424.971   421.459   430.216
936.580   396.211   396.339   398.656
936.700   445.971   447.879   449.576
936.820   381.911   378.539   380.096
936.940   405.471   407.319   410.596
937.060   421.791   423.219   421.956
937.180   519.931   516.519   518.136
937.300   426.491   421.639   425.476
937.420   431.711   428.979   430.996
937.540   383.151   380.739   383.456
937.659   439.471   433.779   433.396
937.779   352.851   348.659   354.576
937.899   433.031   435.139   436.336
938.019   392.191   385.639   391.316
938.139   473.531   468.839   460.196
938.259   410.811   406.979   414.296
938.379   488.971   482.219   483.576
938.499   393.111   386.599   386.336
938.619   454.531   444.439   450.156
938.738   369.551   368.219   373.276
938.858   468.851   472.119   468.416
938.978   386.211   381.639   386.216
939.098   454.191   456.259   458.656
939.218   407.911   401.319   402.856
939.338   458.931   464.599   457.936
939.457   413.991   410.279   410.936
939.577   438.511   434.299   442.676
939.697   403.631   398.259   407.636
939.817   421.831   414.699   421.056
939.936   450.071   444.999   438.616
940.056   445.211   443.679   444.936
940.176   418.511   416.859   419.416
940.296   450.751   445.539   448.776
940.415   401.231   398.199   401.956
940.535   489.571   488.079   492.056
940.655   403.331   404.859   406.176
940.775   439.131   439.179   440.716
940.894   383.231   387.359   387.216
941.014   482.791   479.979   481.756
941.134   403.711   403.959   402.556
941.253   459.891   453.539   457.276
941.373   427.951   425.359   429.836
941.493   499.191   489.359   492.216
941.612   430.251   426.799   433.836
941.732   417.851   418.279   418.116
941.852   424.751   419.319   426.856
941.971   473.971   464.959   472.656
942.091   393.491   389.939   395.296
942.210   507.451   502.939   503.276
942.330   386.351   385.339   388.156
942.450   522.251   523.179   527.496
942.569   406.691   399.739   407.516
942.689   487.271   480.339   489.396
942.808   406.411   410.079   407.576
942.928   474.451   470.619   473.056
943.047   458.591   453.559   457.476
943.167   416.271   408.419   410.896
943.286   430.031   424.399   433.536
943.406   474.871   469.739   476.096
943.525   468.951   463.039   467.456
943.645   480.031   479.559   481.716
943.764   469.311   462.899   462.576
943.884   462.751   456.059   464.516
944.003   413.211   407.779   412.056
944.123   453.171   448.799   454.236
944.242   462.891   457.579   459.496
944.362   496.191   496.279   497.896
944.481   437.251   427.839   437.616
944.601   475.771   474.759   477.196
944.720   439.771   434.579   435.796
944.839   462.911   464.899   464.876
944.959   357.631   361.099   361.356
945.078   510.011   507.679   514.856
945.198   435.211   423.319   431.136
945.317   508.611   504.799   507.496
945.436   472.251   469.899   478.296
945.556   473.611   468.799   472.196
945.675   455.891   455.779   461.496
945.794   469.671   474.459   475.536
945.914   430.911   428.459   433.216
946.033   484.731   476.939   484.996
946.152   437.211   438.659   436.856
946.272   487.371   484.399   487.236
946.391   431.411   426.399   426.856
946.510   522.131   519.779   520.076
946.629   411.511   403.259   407.876
946.749   487.951   485.579   485.716
946.868   431.071   430.479   432.556
946.987   499.511   501.539   501.096
947.107   454.251   453.239   454.116
947.226   460.451   460.259   464.356
947.345   428.311   429.619   434.436
947.464   482.991   477.939   482.436
947.583   368.031   365.739   366.416
947.703   435.251   432.099   434.556
947.822   451.271   450.219   451.716
947.941   456.871   455.299   461.116
948.060   407.251   405.419   407.056
948.179   482.811   483.999   488.676
948.299   426.931   426.539   431.776
948.418   514.711   512.279   517.696
948.537   398.271   391.419   400.316
948.656   475.651   470.999   475.236
948.775   416.951   411.319   415.216
948.894   461.711   458.299   458.836
949.013   423.251   426.739   428.076
949.132   474.291   470.359   472.156
949.251   442.951   442.499   439.536
949.371   470.511   467.339   471.796
949.490   397.191   388.299   395.656
949.609   503.371   499.159   504.276
949.728   380.471   371.099   378.176
949.847   446.991   439.859   450.336
949.966   434.251   429.879   428.756
950.085   443.551   435.419   441.656
950.204   406.991   404.159   404.956
950.323   511.111   508.439   512.456
950.442   374.851   374.479   373.656
950.561   470.331   467.799   471.396
950.680   407.371   399.319   404.356
950.799   445.271   444.139   448.016
950.918   421.351   420.279   425.916
951.037   462.271   463.779   460.936
951.156   417.871   411.579   418.536
951.275   433.251   429.339   436.956
951.394   396.371   395.919   397.376
951.513   452.651   449.399   452.336
951.631   396.891   393.939   397.016
951.750   434.071   437.319   441.156
951.869   398.131   397.199   397.116
951.988   427.951   423.159   427.496
952.107   348.551   343.779   348.276
952.226   435.111   436.179   439.996
952.345   354.291   353.239   356.236
952.464   406.171   407.239   416.256
952.583   397.291   398.519   400.896
952.701   428.411   428.839   428.496
952.820   352.851   350.499   351.396
952.939   443.751   445.679   445.276
953.058   334.151   339.619   337.696
953.177   436.751   427.879   429.256
953.295   352.631   349.839   354.996
953.414   412.031   413.019   416.056
953.533   327.471   329.479   333.216
953.652   417.791   410.699   416.476
953.771   366.011   366.319   366.136
953.889   418.551   409.139   413.496
954.008   375.671   378.579   383.096
954.127   429.711   438.459   436.256
954.245   362.731   369.159   365.476
954.364   448.751   448.879   449.516
954.483   364.291   364.199   366.916
954.602   432.551   436.099   438.576
954.720   338.891   338.539   347.696
954.839   459.511   454.979   454.336
954.958   357.591   361.719   357.916
955.076   411.071   408.939   412.676
955.195   383.151   381.019   382.116