#
#Integration time [ms]:   8.000
#Averaging Nr. [scans]: 300
#Smoothing Nr. [pixels]: 0
#Data measured with spectrometer [name]: 2010165U1
#Wave    Sample    Dark      Reference Scope
#[nm]    [counts]  [counts]  [counts] 
#
407.505   321.235   319.339   316.832
407.651   270.932   272.113   267.636
407.797   311.520   312.577   307.541
407.944   290.309   285.841   287.397
408.090   301.987   300.902   297.150
408.236   268.635   266.121   267.532
408.382   326.368   328.657   322.315
408.529   261.807   264.640   259.107
408.675   350.708   352.652   350.953
408.821   282.513   284.109   281.691
408.968   376.520   376.428   376.376
409.114   262.343   262.196   258.656
409.260   335.709   337.326   332.430
409.406   275.799   275.226   270.402
409.553   326.102   327.127   322.259
409.699   249.980   248.989   247.515
409.845   345.585   350.761   341.989
409.991   251.932   253.273   249.498
410.137   353.989   350.611   351.647
410.284   272.296   277.455   265.676
410.430   346.704   346.429   346.281
410.576   267.157   274.171   263.502
410.722   338.171   335.845   336.306
410.868   284.259   285.365   283.782
411.015   381.059   382.430   377.694
411.161   269.682   269.729   266.124
411.307   376.862   377.423   374.611
411.453   282.264   286.008   278.784
411.599   362.786   360.599   359.104
411.746   298.388   304.211   290.286
411.892   379.079   369.349   368.087
412.038   387.129   313.534   305.588
412.184  1083.969   460.610   470.294
412.330  1121.333   431.151   439.375
412.476  1240.382   493.803   509.179
412.622  1198.479   426.071   436.178
412.769  1303.514   504.404   516.047
412.915  1264.976   437.353   441.073
413.061  1374.544   503.140   519.007
413.207  1355.341   460.796   470.733
413.353  1461.734   524.115   549.118
413.499  1441.418   473.150   483.342
413.645  1553.132   547.597   568.707
413.791  1513.332   480.179   497.054
413.938  1644.438   567.615   586.268
414.084  1630.696   512.525   539.609
414.230  1714.937   554.534   582.701
414.376  1722.011   529.777   560.313
414.522  1820.160   578.431   609.618
414.668  1813.730   529.724   563.373
414.814  1975.117   639.996   683.135
414.960  1909.391   530.161   573.555
415.106  2056.448   636.005   677.567
415.252  2012.210   559.776   604.271
415.398  2146.992   632.660   685.298
415.544  2169.025   621.962   675.316
415.690  2262.470   662.279   715.886
415.836  2253.612   605.615   663.820
415.982  2387.424   677.414   746.371
416.128  2383.331   626.162   692.253
416.274  2537.038   733.676   815.163
416.420  2502.333   646.356   729.350
416.566  2656.985   739.875   824.038
416.712  2625.472   659.200   751.250
416.858  2766.141   734.490   831.002
417.004  2753.941   677.254   773.600
417.150  2910.192   757.139   866.494
417.296  2880.096   678.115   788.233
417.442  3022.332   767.983   888.245
417.588  2975.796   700.398   822.543
417.734  3113.561   782.654   909.682
417.880  3081.691   736.512   866.166
418.026  3191.959   800.067   944.203
418.172  3151.278   754.889   907.788
418.318  3235.609   817.636   961.171
418.464  3135.676   716.722   882.132
418.610  3266.961   834.695   996.184
418.756  3152.347   731.574   890.352
418.902  3254.660   816.571   997.504
419.048  3178.523   740.694   923.352
419.194  3312.400   829.360  1025.156
419.340  3251.169   751.357   947.725
419.486  3392.812   852.996  1061.033
419.631  3319.939   764.852   972.713
419.777  3470.134   868.402  1079.738
419.923  3394.946   760.191   980.569
420.069  3517.047   841.567  1077.057
420.215  3474.676   764.094   999.807
420.361  3655.151   878.192  1126.589
420.507  3622.463   803.850  1056.603
420.653  3707.269   840.365  1098.329
420.799  3679.865   783.523  1046.463
420.944  3786.196   830.755  1097.672
421.090  3756.212   775.980  1053.955
421.236  3895.591   870.076  1158.909
421.382  3845.589   797.991  1085.679
421.528  3918.522   883.499  1177.149
421.674  3860.747   810.731  1116.703
421.819  3978.830   895.226  1202.264
421.965  3890.651   825.918  1142.704
422.111  3936.774   886.073  1214.215
422.257  3876.946   806.081  1139.898
422.403  3992.513   899.523  1248.697
422.549  3870.421   802.142  1141.599
422.694  3958.183   892.192  1240.627
422.840  3894.269   829.544  1185.308
422.986  3951.501   869.172  1226.878
423.132  3942.871   842.048  1212.044
423.278  3996.085   880.531  1258.753
423.423  3959.189   825.727  1209.367
423.569  4075.281   902.443  1294.424
423.715  4002.459   817.504  1209.223
423.861  4122.862   915.150  1320.801
424.006  4058.074   833.437  1240.285
424.152  4162.582   918.523  1335.672
424.298  4108.721   859.590  1278.130
424.444  4148.196   891.986  1319.740
424.589  4107.435   841.303  1269.375
424.735  4165.956   911.883  1346.885
424.881  4077.062   808.248  1245.223
425.027  4140.161   900.141  1342.194
425.172  4074.644   820.186  1273.574
425.318  4167.423   917.484  1368.706
425.464  4095.588   857.036  1313.329
425.609  4128.659   894.493  1356.738
425.755  4047.168   823.792  1295.927
425.901  4119.941   908.023  1373.346
426.047  4020.779   836.454  1307.068
426.192  4070.854   898.499  1366.509
426.338  3974.620   811.184  1287.906
426.484  4042.199   901.841  1374.312
426.629  3902.138   803.690  1279.091
426.775  3974.383   874.704  1358.072
426.921  3903.233   839.260  1326.649
427.066  3949.272   908.225  1392.716
427.212  3820.026   814.614  1302.393
427.357  3867.685   903.302  1394.332
427.503  3699.594   802.801  1294.128
427.649  3770.523   881.778  1378.313
427.794  3667.609   815.934  1314.816
427.940  3731.318   898.814  1405.735
428.086  3622.728   793.469  1293.392
428.231  3716.081   874.290  1379.508
428.377  3637.976   792.959  1290.568
428.522  3727.489   889.212  1394.641
428.668  3610.735   776.978  1282.664
428.814  3703.687   869.523  1374.317
428.959  3636.760   781.633  1283.097
429.105  3707.329   850.155  1365.970
429.250  3638.753   776.368  1294.429
429.396  3705.616   841.150  1363.031
429.542  3656.363   768.481  1287.660
429.687  3730.002   842.541  1363.360
429.833  3593.227   735.728  1256.598
429.978  3656.399   843.822  1367.784
430.124  3529.647   764.085  1291.855
430.269  3599.490   846.427  1376.822
430.415  3486.711   774.870  1306.800
430.560  3452.611   798.647  1331.937
430.706  3343.483   739.211  1274.102
430.852  3395.375   816.277  1360.636
430.997  3236.938   726.588  1256.912
431.143  3301.788   801.535  1345.211
431.288  3197.397   726.844  1265.732
431.434  3246.572   794.612  1339.645
431.579  3169.802   735.943  1286.691
431.725  3226.658   814.004  1366.264
431.870  3149.045   728.755  1277.929
432.016  3260.202   814.376  1368.579
432.161  3147.584   702.153  1266.434
432.307  3262.472   793.783  1364.125
432.452  3179.524   704.061  1271.089
432.597  3262.477   768.468  1338.881
432.743  3254.669   729.879  1313.065
432.888  3318.294   779.460  1363.551
433.034  3241.158   692.177  1276.546
433.179  3377.981   810.648  1399.847
433.325  3297.498   741.088  1334.681
433.470  3339.354   768.900  1370.514
433.616  3262.454   719.563  1331.287
433.761  3321.106   798.161  1409.525
433.906  3211.733   696.692  1307.714
434.052  3300.754   796.920  1420.896
434.197  3191.099   715.060  1340.350
434.343  3274.553   797.871  1429.345
434.488  3190.134   732.877  1364.033
434.634  3253.130   779.385  1421.669
434.779  3143.778   705.404  1351.274
434.924  3225.781   786.000  1446.880
435.070  3173.242   726.344  1390.731
435.215  3270.886   803.789  1465.067
435.360  3215.842   724.137  1401.870
435.506  3323.269   811.555  1506.265
435.651  3269.130   755.229  1454.941
435.797  3296.733   754.036  1447.516
435.942  3272.557   704.719  1409.330
436.087  3408.159   800.615  1518.485
436.233  3313.384   713.646  1435.189
436.378  3458.521   809.787  1543.852
436.523  3434.240   749.220  1494.943
436.669  3521.709   816.982  1577.315
436.814  3460.520   749.378  1507.121
436.959  3522.690   799.635  1566.725
437.105  3482.048   747.978  1530.849
437.250  3537.682   787.591  1587.330
437.395  3474.406   727.986  1533.441
437.540  3568.653   796.148  1610.694
437.686  3485.670   726.602  1544.920
437.831  3589.403   826.651  1654.540
437.976  3537.377   774.240  1615.712
438.122  3620.561   822.354  1684.893
438.267  3515.543   725.374  1591.021
438.412  3623.397   819.044  1703.588
438.557  3545.170   735.804  1627.751
438.703  3633.670   819.361  1726.481
438.848  3581.082   764.571  1687.148
438.993  3688.015   850.471  1789.056
439.138  3576.629   745.707  1697.820
439.284  3725.745   854.432  1821.914
439.429  3653.742   791.247  1761.614
439.574  3761.321   868.417  1861.754
439.719  3701.246   794.408  1805.218
439.865  3806.052   859.768  1885.725
440.010  3744.885   771.117  1809.209
440.155  3890.797   863.932  1918.431
440.300  3878.379   796.459  1872.962
440.445  4026.411   882.895  1968.161
440.591  4008.604   813.015  1916.185
440.736  4168.280   879.010  2005.722
440.881  4201.733   840.763  1981.044
441.026  4335.946   882.451  2040.279
441.171  4325.208   790.235  1958.981
441.316  4528.193   893.014  2092.064
441.462  4578.303   840.763  2060.404
441.607  4766.758   941.296  2174.856
441.752  4747.202   846.989  2109.645
441.897  4902.948   930.102  2209.713
442.042  4883.047   847.769  2144.335
442.187  5007.440   911.160  2234.484
442.332  4949.319   826.027  2164.109
442.478  5045.506   926.760  2287.201
442.623  5027.618   882.887  2261.435
442.768  5143.623   983.105  2391.140
442.913  5000.649   880.199  2303.495
443.058  5095.853   991.643  2452.265
443.203  4956.869   918.434  2397.842
443.348  5011.608   968.886  2482.219
443.493  4914.161   924.869  2449.983
443.638  4988.646   990.390  2543.418
443.784  4842.433   879.300  2466.055
443.929  4925.769   970.115  2590.336
444.074  4888.939   916.471  2560.009
444.219  5031.267  1030.639  2696.021
444.364  5020.067   951.385  2647.625
444.509  5121.045   989.538  2715.896
444.654  5171.236   944.516  2701.156
444.799  5361.865  1005.732  2798.405
444.944  5432.150   961.362  2787.257
445.089  5570.976  1003.383  2854.202
445.234  5674.948   954.392  2832.145
445.379  5913.928  1039.532  2949.385
445.524  5995.388   954.526  2913.126
445.669  6181.112  1010.448  2996.804
445.814  6237.381   963.927  2986.663
445.959  6484.442  1044.558  3115.144
446.104  6568.556  1009.737  3115.401
446.249  6679.674  1043.149  3188.043
446.394  6681.299  1012.061  3190.095
446.539  6869.458  1087.317  3300.633
446.684  6758.728   990.230  3241.896
446.829  6925.227  1097.259  3394.918
446.974  6849.178  1024.315  3358.300
447.119  6966.545  1116.610  3509.313
447.264  6884.243  1026.422  3452.965
447.409  7031.512  1112.012  3591.359
447.554  6966.479  1043.706  3568.634
447.699  7039.440  1110.841  3672.047
447.844  6969.866  1055.398  3656.429
447.989  7133.885  1151.587  3821.686
448.134  7128.867  1082.019  3805.040
448.279  7330.121  1160.865  3929.492
448.424  7293.910  1097.313  3920.859
448.568  7423.389  1151.641  4018.044
448.713  7456.898  1084.478  3992.739
448.858  7781.431  1212.271  4186.184
449.003  7877.743  1122.351  4176.108
449.148  7994.157  1194.723  4283.855
449.293  8039.352  1141.312  4290.704
449.438  8370.105  1226.064  4449.276
449.583  8361.504  1125.588  4365.749
449.728  8707.912  1260.127  4604.665
449.872  8707.636  1157.381  4558.785
450.017  8913.498  1232.995  4693.856
450.162  9009.549  1169.838  4685.142
450.307  9288.556  1279.880  4875.531
450.452  9333.206  1197.964  4858.018
450.597  9588.977  1300.591  5059.825
450.742  9656.420  1233.299  5037.666
450.886  9890.586  1290.088  5171.439
451.031 10030.485  1264.073  5219.104
451.176 10237.188  1328.468  5353.849
451.321 10290.588  1242.968  5352.744
451.466 10539.364  1344.728  5532.303
451.611 10654.222  1279.780  5570.635
451.755 10832.452  1381.214  5738.898
451.900 10795.483  1279.473  5727.082
452.045 11118.837  1388.006  5934.974
452.190 11117.293  1300.211  5927.407
452.334 11418.160  1407.327  6134.628
452.479 11446.217  1360.436  6154.258
452.624 11637.079  1444.667  6348.735
452.769 11627.496  1351.065  6300.269
452.914 11995.259  1457.784  6547.211
453.058 12040.851  1396.695  6554.742
453.203 12355.387  1495.008  6790.934
453.348 12432.857  1422.490  6810.744
453.493 12731.028  1503.854  6987.953
453.637 12878.910  1415.576  6991.206
453.782 13330.284  1534.134  7245.099
453.927 13373.653  1457.098  7259.752
454.071 13742.177  1550.897  7455.901
454.216 14031.004  1498.342  7525.575
454.361 14428.019  1582.758  7703.867
454.506 14629.648  1535.409  7737.615
454.650 15025.523  1597.847  7958.260
454.795 15159.473  1537.955  7989.329
454.940 15665.605  1622.800  8250.920
455.084 15674.613  1520.175  8200.028
455.229 16157.254  1646.198  8507.385
455.374 16056.437  1569.104  8515.253
455.518 16320.875  1675.735  8784.521
455.663 16322.662  1598.817  8837.276
455.808 16398.961  1671.969  9023.008
455.952 16227.413  1591.410  9011.584
456.097 16318.668  1670.785  9251.161
456.242 16157.060  1613.464  9321.994
456.386 16237.901  1753.796  9562.835
456.531 16007.681  1643.088  9599.345
456.676 15982.426  1761.424  9811.212
456.820 15831.287  1692.529  9909.003
456.965 15877.780  1782.276 10122.948
457.109 15815.938  1708.143 10184.039
457.254 15888.218  1778.146 10344.777
457.399 16009.898  1716.888 10452.618
457.543 16313.052  1809.548 10683.948
457.688 16678.252  1738.636 10757.703
457.832 17019.555  1827.884 10912.452
457.977 17412.734  1753.492 10988.838
458.122 18123.486  1845.101 11237.271
458.266 18643.139  1787.602 11258.315
458.411 19397.449  1852.464 11469.782
458.555 20046.801  1799.885 11540.021
458.700 20783.611  1919.368 11788.203
458.844 21212.293  1790.169 11751.104
458.989 22039.176  1883.335 11969.785
459.134 22573.477  1838.810 12065.854
459.278 23157.531  1917.028 12282.741
459.423 23434.383  1848.767 12332.903
459.567 23681.545  1906.896 12463.232
459.712 23940.355  1901.123 12562.246
459.856 24199.168  1947.768 12733.595
460.001 23922.125  1853.066 12731.944
460.145 23802.082  1916.651 12890.704
460.290 23567.879  1898.919 12953.881
460.434 23454.223  1999.850 13140.748
460.579 23095.752  1924.820 13241.742
460.723 22595.434  1976.703 13330.892
460.868 22000.520  1888.710 13350.612
461.012 21809.885  1964.987 13542.285
461.157 21464.826  1927.024 13592.698
461.301 21245.143  2008.616 13805.145
461.446 20658.379  1901.317 13690.218
461.590 20522.723  2005.387 13898.299
461.734 20398.547  1917.433 13923.914
461.879 20656.391  2030.486 14158.779
462.023 20556.713  1934.656 14096.450
462.168 20682.191  1971.497 14201.162
462.312 20809.135  1896.478 14154.451
462.457 21377.289  2003.961 14319.315
462.601 21826.459  1928.707 14333.812
462.745 22618.248  2038.105 14584.977
462.890 23042.799  1934.206 14504.098
463.034 23536.695  1993.347 14579.512
463.179 24196.727  1929.381 14612.724
463.323 25091.752  2035.746 14790.515
463.467 25734.949  1967.588 14819.937
463.612 26119.955  2011.236 14872.479
463.756 26415.742  1898.323 14803.589
463.901 27208.574  2019.358 15027.952
464.045 27496.367  1940.596 14870.043
464.189 28022.178  2041.273 15096.744
464.334 27902.824  1944.794 15001.291
464.478 28170.570  1986.660 15191.891
464.622 28009.313  1911.223 15097.473
464.767 28355.711  2025.715 15304.818
464.911 28105.154  1949.088 15232.483
465.055 27769.748  1991.690 15357.587
465.200 27128.512  1915.801 15301.738
465.344 26759.512  1984.033 15378.076
465.488 26311.346  1897.763 15353.734
465.633 25956.008  2020.171 15532.695
465.777 25089.072  1932.412 15498.018
465.921 24297.832  1929.748 15575.919
466.066 23435.869  1876.451 15472.606
466.210 23071.070  1980.160 15657.537
466.354 22378.107  1884.157 15571.886
466.498 21790.371  1970.184 15688.198
466.643 21114.131  1882.633 15680.665
466.787 20692.668  1959.036 15733.271
466.931 20447.119  1928.816 15751.668
467.076 20346.141  1969.624 15853.188
467.220 19927.100  1870.964 15763.523
467.364 19852.355  1909.664 15809.566
467.508 19928.471  1840.186 15748.595
467.652 20607.697  1949.335 16012.512
467.797 20801.340  1875.391 15844.542
467.941 21481.219  1968.304 16040.508
468.085 21924.141  1848.194 15948.298
468.229 22854.561  1950.617 16154.823
468.374 23595.121  1873.642 16038.388
468.518 24656.113  1948.247 16224.313
468.662 25204.107  1857.794 16048.314
468.806 26176.303  1895.480 16213.264
468.950 26914.309  1839.904 16101.789
469.095 28113.348  1948.992 16343.543
469.239 28763.449  1874.061 16303.483
469.383 29443.980  1939.131 16442.328
469.527 29739.863  1855.564 16375.704
469.671 30106.600  1913.674 16433.104
469.815 30554.283  1873.549 16488.039
469.960 30857.523  1918.507 16637.828
470.104 30576.148  1826.972 16553.283
470.248 30478.598  1905.850 16682.543
470.392 29945.957  1861.826 16539.459
470.536 29893.145  1926.113 16713.689
470.680 29317.467  1901.769 16672.959
470.824 28733.816  1938.957 16816.262
470.969 27989.148  1853.781 16828.816
471.113 27333.889  1914.247 16935.361
471.257 26568.482  1854.272 16888.236
471.401 26027.311  1945.116 17046.059
471.545 25114.613  1857.265 16938.342
471.689 24515.695  1927.414 17097.797
471.833 23831.592  1808.213 17001.346
471.977 23596.898  1939.770 17188.777
472.121 23273.736  1892.178 17161.258
472.265 23169.988  1953.609 17326.281
472.409 22757.959  1839.081 17220.941
472.553 23005.705  1930.180 17496.793
472.698 23053.162  1841.614 17362.350
472.842 23582.998  1984.701 17569.301
472.986 23797.830  1863.585 17497.002
473.130 24242.285  1965.270 17666.770
473.274 24642.736  1874.648 17619.219
473.418 25632.648  1975.512 17896.682
473.562 26128.348  1888.913 17759.590
473.706 26927.006  1981.321 17943.891
473.850 27324.994  1887.870 17858.586
473.994 28074.318  1979.198 18038.074
474.138 28611.119  1884.073 18029.682
474.282 29393.959  1984.574 18204.762
474.426 29650.914  1900.090 18117.242
474.570 30065.443  1953.191 18261.006
474.714 30287.504  1869.292 18212.660
474.858 30933.697  1984.295 18443.186
475.002 30958.469  1891.770 18328.664
475.146 31331.268  2008.152 18566.230
475.290 31073.043  1892.992 18497.619
475.434 31120.252  1970.799 18698.574
475.578 30733.949  1901.880 18577.830
475.721 30897.178  1998.125 18796.426
475.865 30630.824  1947.644 18785.871
476.009 30380.252  2008.228 18984.791
476.153 29695.783  1876.611 18854.064
476.297 29558.939  1986.731 19060.592
476.441 29212.766  1899.655 18986.303
476.585 29162.926  2043.639 19176.844
476.729 28700.939  1928.710 19144.287
476.873 28168.176  1995.780 19279.531
477.017 27744.543  1904.333 19253.482
477.161 27622.725  2013.597 19427.842
477.305 27401.313  1955.199 19401.289
477.448 27376.652  2029.757 19624.279
477.592 26850.873  1891.475 19537.092
477.736 26713.766  1971.663 19686.822
477.880 26576.990  1949.196 19660.859
478.024 26934.432  2035.291 19899.850
478.168 26801.070  1996.046 19805.818
478.312 26879.123  2032.754 19928.342
478.455 26719.420  1918.864 19884.012
478.599 27076.953  2022.029 20104.361
478.743 27298.553  1979.649 20077.406
478.887 27784.955  2062.881 20263.088
479.031 27795.320  1961.089 20222.102
479.175 27951.123  2021.134 20300.662
479.318 28057.041  1947.900 20251.396
479.462 28902.545  2053.214 20562.227
479.606 29065.990  1971.547 20414.500
479.750 29586.467  2061.012 20660.266
479.894 29442.604  1937.382 20491.996
480.037 29757.434  2031.414 20728.861
480.181 29906.547  1918.966 20612.506
480.325 30602.285  2054.542 20862.020
480.469 30799.924  1969.274 20813.227
480.613 31200.111  2044.236 21042.953
480.756 31029.152  1961.256 20935.932
480.900 31282.281  2014.785 21060.992
481.044 31501.332  1969.794 21063.799
481.188 31964.063  2078.245 21282.654
481.331 31920.268  1970.131 21263.686
481.475 31875.748  2031.250 21324.432
481.619 31618.824  1930.820 21229.281
481.762 32124.791  2036.241 21520.711
481.906 32168.625  1996.409 21474.900
482.050 32453.111  2082.757 21672.746
482.194 32188.098  1961.842 21574.965
482.337 32126.359  1999.651 21676.600
482.481 32028.439  1924.069 21600.758
482.625 32318.863  1999.494 21776.508
482.768 32466.281  1939.786 21753.920
482.912 32668.213  2062.650 22016.070
483.056 32446.174  1929.949 21973.176
483.199 32582.229  1990.435 22144.311
483.343 32578.602  1972.168 21997.174
483.487 33086.625  2059.548 22261.000
483.630 32758.391  1971.295 22099.756
483.774 32941.516  2037.983 22390.023
483.918 32562.584  1897.102 22244.498
484.061 32979.688  2014.663 22557.422
484.205 32770.219  1947.918 22355.678
484.349 33005.031  2041.013 22610.307
484.492 32512.301  1946.880 22461.260
484.636 32513.139  1981.138 22628.285
484.779 32259.359  1910.535 22578.096
484.923 32364.398  2040.856 22792.867
485.067 32210.188  1964.393 22753.240
485.210 32061.430  2026.358 22911.000
485.354 31546.172  1912.541 22877.477
485.497 31222.457  1984.834 23003.426
485.641 30889.611  1913.825 22995.645
485.785 30850.482  1991.409 23133.180
485.928 30625.805  1951.070 23135.383
486.072 30290.414  2001.259 23181.465
486.215 29972.000  1899.180 23211.787
486.359 29973.055  2008.648 23408.924
486.502 29806.516  1931.475 23340.680
486.646 29933.176  2036.420 23616.531
486.789 29692.252  1949.174 23529.900
486.933 29666.637  2008.373 23651.707
487.077 29480.559  1915.951 23574.133
487.220 29795.785  1986.297 23702.730
487.364 30208.975  1967.080 23750.404
487.507 30631.912  2029.736 23938.922
487.651 30702.301  1931.685 23863.154
487.794 31088.289  2000.100 24066.104
487.938 31281.865  1909.396 23924.963
488.081 32080.002  2009.766 24160.477
488.225 32515.994  1971.358 24080.498
488.368 33085.363  2008.227 24226.094
488.512 33429.727  1942.118 24197.723
488.655 34027.172  1984.769 24347.592
488.798 34383.496  1908.415 24283.873
488.942 35044.023  2017.969 24479.873
489.085 35406.965  1942.030 24403.678
489.229 35792.883  2002.100 24586.264
489.372 35798.242  1918.654 24489.600
489.516 36223.906  1974.196 24740.910
489.659 36311.766  1930.130 24633.938
489.803 36668.164  2039.852 24813.492
489.946 36449.852  1934.322 24704.010
490.089 36324.992  1999.414 24900.951
490.233 35951.121  1867.439 24816.283
490.376 35970.781  1997.271 24995.238
490.520 35557.020  1929.316 24903.613
490.663 35501.418  2023.541 25189.596
490.806 34852.395  1918.848 25074.748
490.950 34327.258  1985.422 25201.742
491.093 33606.574  1851.785 25079.867
491.237 33310.098  1961.688 25269.355
491.380 32899.336  1896.415 25314.689
491.523 32527.922  2003.309 25439.205
491.667 31970.516  1888.355 25441.154
491.810 31240.582  1959.769 25417.842
491.953 30943.314  1897.655 25475.844
492.097 30865.367  1960.743 25664.150
492.240 30484.867  1906.911 25566.141
492.383 30337.666  1948.946 25738.154
492.527 29896.285  1842.814 25610.510
492.670 29880.486  1920.813 25769.793
492.813 29976.521  1849.303 25832.180
492.957 30331.270  1964.001 26000.197
493.100 30381.727  1884.522 25876.227
493.243 30822.564  1988.690 26170.229
493.386 30819.729  1870.717 26036.279
493.530 31243.264  1906.630 26204.539
493.673 31748.553  1854.288 26147.992
493.816 32588.230  1943.915 26378.430
493.960 32825.660  1863.431 26184.643
494.103 33381.477  1931.728 26382.137
494.246 33561.695  1844.301 26298.115
494.389 34329.559  1875.067 26465.414
494.533 34892.887  1882.270 26445.379
494.676 35495.141  1928.690 26574.492
494.819 35760.871  1822.741 26472.939
494.962 36427.254  1904.474 26764.674
495.106 36385.883  1791.158 26582.865
495.249 36914.836  1914.051 26803.592
495.392 37047.547  1827.016 26663.637
495.535 37453.281  1929.587 26802.701
495.678 37355.016  1812.192 26715.938
495.822 37630.434  1852.544 26944.158
495.965 37542.809  1809.398 26952.449
496.108 37719.359  1896.033 27105.883
496.251 37454.074  1810.211 26971.961
496.394 37524.242  1917.273 27197.199
496.538 36958.359  1818.019 26992.605
496.681 36676.293  1857.181 27097.463
496.824 36527.703  1825.958 27235.689
496.967 36457.465  1907.220 27413.910
497.110 36112.344  1854.115 27361.633
497.253 35849.387  1892.653 27529.896
497.396 35089.359  1791.023 27338.344
497.540 34720.566  1862.558 27579.416
497.683 34261.734  1773.616 27529.797
497.826 34163.871  1892.011 27776.223
497.969 33626.082  1814.301 27629.494
498.112 33146.008  1880.777 27681.209
498.255 32668.824  1804.715 27707.051
498.398 32490.631  1865.013 27891.301
498.541 32145.604  1811.759 27879.398
498.685 32022.553  1886.976 28056.363
498.828 31669.721  1792.754 27923.438
498.971 31410.777  1859.143 28062.994
499.114 30899.924  1735.576 27917.398
499.257 30808.686  1864.883 27983.988
499.400 30907.613  1787.474 28163.461
499.543 30958.740  1836.110 28214.928
499.686 30915.887  1797.971 28203.818
499.829 30966.277  1875.164 28384.641
499.972 30707.785  1780.965 28176.309
500.115 31074.430  1859.390 28381.346
500.258 31478.490  1795.695 28503.322
500.401 31884.254  1875.830 28540.900
500.544 32069.365  1791.857 28423.021
500.687 32384.660  1843.177 28588.613
500.830 32273.488  1777.610 28351.121
500.973 32817.613  1828.447 28549.758
501.116 33311.773  1798.383 28530.463
501.259 34061.461  1870.828 28783.508
501.402 34378.383  1781.503 28729.348
501.545 34753.789  1866.678 28797.994
501.688 34976.559  1765.022 28677.391
501.831 35753.969  1859.411 28966.283
501.974 35907.582  1793.478 28744.125
502.117 36618.578  1888.376 28996.021
502.260 36647.324  1783.940 28819.537
502.403 36985.598  1864.850 29014.439
502.546 36985.410  1765.717 28944.594
502.689 37345.973  1891.460 29094.521
502.832 37359.629  1802.967 29025.777
502.975 37537.004  1901.257 29168.289
503.118 37086.930  1773.760 28999.953
503.261 37140.883  1852.375 29194.379
503.404 36963.828  1825.291 29166.193
503.546 36886.941  1886.700 29286.289
503.689 36777.535  1817.120 29291.578
503.832 36625.254  1875.365 29467.537
503.975 36163.813  1818.313 29379.721
504.118 35788.621  1870.609 29486.410
504.261 35207.738  1764.473 29357.074
504.404 35201.016  1873.318 29631.184
504.547 34899.934  1864.651 29619.104
504.690 34640.484  1898.655 29811.281
504.832 33963.211  1801.677 29607.691
504.975 33678.230  1861.422 29780.289
505.118 33190.813  1781.188 29676.359
505.261 33143.898  1891.922 29889.045
505.404 33074.109  1852.738 29991.404
505.547 32872.996  1924.802 30027.750
505.689 32282.920  1824.594 29832.654
505.832 32127.109  1873.608 30050.357
505.975 31875.426  1808.473 29999.764
506.118 31982.764  1848.841 30175.502
506.261 31944.539  1830.294 30158.529
506.404 32045.922  1930.261 30353.949
506.546 31695.289  1830.434 30204.424
506.689 31724.402  1890.681 30410.547
506.832 31487.295  1823.647 30300.482
506.975 31738.711  1869.687 30537.738
507.117 31893.688  1850.692 30459.328
507.260 32203.992  1927.984 30668.816
507.403 32065.947  1830.604 30563.082
507.546 32135.416  1894.577 30672.785
507.688 32110.463  1822.816 30642.625
507.831 32395.869  1902.802 30822.309
507.974 32439.973  1873.622 30614.004
508.117 32942.945  1931.345 30883.160
508.259 32910.344  1844.421 30755.246
508.402 33210.496  1899.483 30942.691
508.545 33372.855  1826.931 30945.676
508.688 33926.762  1915.252 31212.402
508.830 34125.426  1841.035 31002.393
508.973 34657.355  1938.011 31132.139
509.116 34869.684  1842.512 31037.068
509.258 35528.699  1932.728 31389.977
509.401 35540.766  1841.135 31116.885
509.544 36248.859  1904.543 31374.426
509.686 36652.527  1859.547 31305.803
509.829 37397.766  1951.039 31582.063
509.972 37651.875  1836.102 31438.381
510.114 37940.691  1917.746 31540.234
510.257 38155.402  1827.208 31520.326
510.400 38632.551  1923.469 31650.775
510.542 39065.387  1886.943 31702.102
510.685 39640.523  1964.239 32005.932
510.828 39481.555  1887.458 31878.611
510.970 39551.297  1936.202 32048.678
511.113 39177.215  1849.265 31841.746
511.255 39254.129  1936.846 32003.094
511.398 39216.594  1863.272 31991.264
511.541 39300.664  1962.871 32242.412
511.683 38719.750  1889.147 32052.313
511.826 38426.125  1946.396 32320.266
511.968 37885.332  1886.818 32314.539
512.111 37733.328  1975.467 32611.752
512.254 36963.035  1859.791 32401.910
512.396 36742.527  1985.466 32633.682
512.539 36020.746  1900.390 32539.322
512.681 35396.832  1964.555 32641.271
512.824 34620.746  1859.395 32617.889
512.966 34442.234  1971.108 33046.766
513.109 33685.789  1885.703 32668.963
513.251 33605.051  1996.468 32957.160
513.394 33153.906  1932.232 32912.254
513.536 32853.828  2004.624 33084.074
513.679 32499.354  1917.544 33148.781
513.822 32367.322  1992.917 33253.633
513.964 32342.348  1905.181 33243.367
514.107 32638.232  2004.588 33432.008
514.249 32704.793  1957.401 33365.793
514.392 32946.387  1994.595 33482.086
514.534 33051.094  1922.910 33474.500
514.677 33455.098  2012.272 33587.633
514.819 33889.566  1944.517 33501.219
514.961 34766.152  2016.826 33794.805
515.104 35144.789  1948.247 33639.273
515.246 35975.281  2047.747 33935.797
515.389 36379.898  1934.050 33806.766
515.531 37110.973  2032.325 33972.102
515.674 37689.230  1965.076 33881.477
515.816 38803.438  2066.198 34237.559
515.959 39439.172  1998.273 34226.434
516.101 40109.602  2098.665 34356.285
516.243 40293.254  1964.229 34237.152
516.386 40731.977  2050.332 34311.113
516.528 41293.539  1954.788 34337.031
516.671 42179.352  2086.615 34679.664
516.813 42482.316  2049.058 34536.363
516.956 43114.742  2143.570 34848.352
517.098 43080.953  2026.895 34688.070
517.240 43291.199  2067.284 34787.078
517.383 43432.066  1996.784 34851.004
517.525 43710.684  2112.293 34999.203
517.667 43821.430  2048.222 34915.273
517.810 44209.332  2189.847 35176.199
517.952 43936.219  2057.756 34998.672
518.094 43887.375  2091.084 35126.777
518.237 43696.594  2050.335 35088.969
518.379 44042.957  2132.245 35424.953
518.521 43847.895  2071.803 35342.594
518.664 43747.133  2141.651 35501.727
518.806 43145.730  2062.965 35312.004
518.948 42986.695  2148.394 35536.363
519.091 42483.559  2067.877 35397.672
519.233 42425.031  2158.360 35646.570
519.375 42216.395  2098.339 35752.254
519.518 41847.473  2173.735 35751.344
519.660 41230.398  2122.376 35674.352
519.802 40769.086  2167.317 35848.398
519.944 40007.703  2039.965 35772.871
520.087 39808.109  2167.905 36175.449
520.229 39130.930  2082.379 35929.512
520.371 39002.043  2220.573 36204.473
520.514 38261.410  2143.866 36090.648
520.656 37706.438  2206.771 36287.172
520.798 36764.535  2097.994 36116.988
520.940 36317.059  2185.885 36218.129
521.083 36079.559  2123.731 36385.762
521.225 35927.270  2235.467 36528.063
521.367 35584.055  2150.847 36450.457
521.509 35350.293  2264.927 36654.469
521.651 34607.898  2138.992 36475.785
521.794 34487.547  2166.823 36670.449
521.936 34425.961  2166.213 36627.582
522.078 34818.816  2231.471 36843.383
522.220 35070.449  2209.041 36869.484
522.362 35468.699  2291.198 37003.680
522.505 35457.621  2191.596 36822.934
522.647 36034.055  2261.122 37112.289
522.789 36358.715  2176.751 37004.813
522.931 37238.324  2270.904 37252.410
523.073 37947.375  2228.956 37175.039
523.215 38935.105  2321.674 37356.668
523.357 39502.633  2236.241 37293.773
523.500 40029.117  2318.031 37343.281
523.642 40660.520  2189.510 37412.676
523.784 41670.980  2290.036 37581.617
523.926 42459.309  2273.727 37501.547
524.068 43580.031  2358.189 37821.926
524.210 44050.680  2291.780 37747.113
524.352 44516.457  2342.328 37814.695
524.494 44631.516  2254.937 37636.117
524.637 45347.723  2330.564 37949.055
524.779 45802.891  2269.034 37962.051
524.921 46196.398  2395.046 38013.652
525.063 46232.898  2270.029 37909.016
525.205 46203.715  2378.832 38075.133
525.347 45650.125  2254.783 37896.633
525.489 45642.191  2326.810 38158.379
525.631 45026.043  2271.984 37925.105
525.773 45084.027  2362.463 38159.320
525.915 44543.430  2308.555 37961.012
526.057 44237.918  2376.417 38190.008
526.199 43300.387  2276.401 37995.723
526.341 42666.785  2367.503 38272.730
526.483 41681.691  2240.764 38089.418
526.625 41466.391  2372.336 38497.785
526.767 40709.254  2307.844 38223.098
526.909 40519.906  2393.101 38619.430
527.051 40048.441  2337.284 38867.430
527.193 39461.305  2418.242 39156.145
527.335 38452.406  2268.673 39002.758
527.477 38372.086  2389.000 39516.496
527.619 37795.719  2308.728 39442.895
527.761 37572.273  2431.398 39547.652
527.903 37182.293  2366.042 39572.457
528.045 36592.121  2416.187 39517.961
528.187 36244.840  2318.517 39592.426
528.329 36014.406  2368.042 39692.629
528.471 35888.625  2323.187 39720.609
528.613 36252.391  2467.132 40064.980
528.755 36098.340  2362.034 39919.738
528.897 36268.863  2472.846 40081.117
529.039 36005.750  2367.689 40091.691
529.181 36013.961  2390.820 40270.035
529.323 36106.957  2355.344 40325.832
529.464 36285.945  2438.284 40246.336
529.606 36785.930  2411.373 40468.945
529.748 37119.418  2477.040 40690.582
529.890 37026.367  2391.256 40511.418
530.032 37232.180  2454.517 40737.910
530.174 37354.055  2367.151 40780.844
530.316 37702.672  2439.803 40839.770
530.458 38280.734  2410.928 40987.977
530.599 38836.727  2472.912 41103.727
530.741 39016.309  2417.015 40886.035
530.883 39434.273  2440.897 41107.004
531.025 39828.359  2353.361 41164.523
531.167 40550.719  2463.881 41452.441
531.309 40997.289  2404.052 41334.367
531.450 42124.820  2498.591 41854.242
531.592 42464.043  2462.254 41550.605
531.734 43391.266  2514.007 41851.648
531.876 43805.023  2424.442 41774.238
532.018 44823.648  2501.567 42224.531
532.159 45237.066  2391.701 42026.598
532.301 46435.313  2536.407 42423.219
532.443 47200.508  2422.151 42447.508
532.585 48161.625  2575.107 42709.090
532.727 48415.867  2465.153 42563.488
532.868 48876.664  2522.753 42574.910
533.010 49377.254  2467.916 42630.168
533.152 49952.430  2506.170 42792.875
533.294 50233.695  2427.572 42705.535
533.435 50901.973  2564.450 42970.961
533.577 51006.223  2467.350 42871.738
533.719 51308.066  2536.727 43259.098
533.861 50884.063  2404.704 43082.910
534.002 50998.281  2494.045 43516.660
534.144 50557.809  2417.383 43308.711
534.286 50870.340  2566.613 43705.289
534.427 50354.961  2506.371 43587.438
534.569 49961.012  2587.010 43793.652
534.711 48934.211  2455.194 43663.734
534.853 48466.277  2531.188 44020.391
534.994 47508.465  2462.394 44022.988
535.136 46962.641  2564.554 44279.504
535.278 46085.844  2505.853 44276.813
535.419 45449.328  2609.655 44429.145
535.561 44256.398  2500.830 44185.891
535.703 43429.359  2567.248 44478.578
535.844 42246.059  2450.908 44307.941
535.986 41934.191  2572.116 44822.742
536.128 41218.473  2533.479 44792.246
536.269 41028.012  2637.324 45149.867
536.411 40289.652  2548.134 45019.332
536.552 39778.258  2589.729 45190.625
536.694 39109.629  2500.828 45028.645
536.836 39080.461  2548.784 45317.832
536.977 39092.805  2490.341 45284.293
537.119 39583.895  2603.295 45514.547
537.260 39842.547  2523.492 45370.473
537.402 40480.184  2646.145 45765.000
537.544 40631.434  2519.294 45721.691
537.685 41073.953  2614.608 45730.582
537.827 41745.000  2530.501 45864.918
537.968 42705.086  2584.024 46112.641
538.110 43618.879  2559.071 46046.703
538.251 45068.828  2663.381 46559.191
538.393 45584.340  2528.608 46175.195
538.535 46419.320  2596.818 46327.750
538.676 47026.723  2524.112 46263.020
538.818 48371.391  2606.868 46710.391
538.959 49181.844  2545.243 46630.645
539.101 50223.543  2638.491 46793.453
539.242 51045.816  2595.204 46756.398
539.384 51935.379  2648.717 47069.035
539.525 52063.012  2531.114 46738.617
539.667 52832.000  2611.563 47097.379
539.808 53108.871  2485.026 47061.941
539.950 53769.813  2659.330 47330.313
540.091 54019.816  2580.147 47209.500
540.233 54713.445  2649.100 47629.836
540.374 54501.855  2575.200 47414.957
540.516 54518.500  2635.371 47634.301
540.657 54016.926  2520.000 47332.184
540.798 54242.266  2586.965 47785.523
540.940 53795.578  2518.717 47594.238
541.081 54009.652  2660.743 48069.090
541.223 53439.766  2541.611 47809.469
541.364 53319.605  2668.140 48265.938
541.506 52306.129  2572.959 47973.559
541.647 51662.266  2615.800 48090.887
541.788 51140.980  2545.017 48078.563
541.930 50653.590  2649.294 48126.883
542.071 50265.262  2595.487 48328.297
542.213 49796.410  2697.547 48583.891
542.354 48869.520  2583.414 48457.414
542.495 48218.965  2656.728 48793.027
542.637 46783.438  2530.365 48433.230
542.778 46370.707  2610.934 48814.109
542.920 45512.887  2560.021 48610.426
543.061 45054.594  2670.076 48906.367
543.202 44273.141  2590.030 48853.527
543.344 43455.938  2680.757 48963.523
543.485 42507.668  2581.482 49054.664
543.626 41729.133  2616.582 49322.164
543.768 40585.273  2491.987 48998.305
543.909 40165.270  2610.931 49268.738
544.050 39618.945  2577.655 49250.938
544.192 39237.996  2687.643 49248.027
544.333 38444.691  2577.947 49028.168
544.474 38198.758  2661.159 49492.230
544.615 37393.309  2544.555 49259.508
544.757 37440.750  2675.638 49739.145
544.898 37123.438  2547.591 49557.539
545.039 37403.402  2664.804 49894.922
545.181 37193.734  2590.820 49561.371
545.322 37542.766  2670.084 49804.320
545.463 37485.754  2538.771 49643.785
545.604 38086.023  2589.395 50078.133
545.746 38494.027  2530.970 49958.535
545.887 39554.727  2633.023 50326.547
546.028 40465.434  2581.206 50209.805
546.169 41687.602  2678.414 50258.574
546.311 42390.324  2571.192 49970.289
546.452 43609.109  2642.658 50273.215
546.593 44730.973  2528.326 50370.555
546.734 45885.523  2597.226 50445.484
546.875 47190.199  2534.911 50412.188
547.017 49015.543  2646.367 50707.602
547.158 50455.148  2593.763 50661.488
547.299 51883.051  2690.218 50868.703
547.440 52568.637  2566.450 50476.660
547.581 54043.563  2581.097 50805.383
547.723 54827.410  2563.903 50596.598
547.864 56226.574  2613.663 50984.398
548.005 57073.176  2581.194 50951.113
548.146 58318.480  2674.323 51345.414
548.287 58747.117  2596.538 51203.766
548.428 58931.117  2652.660 51157.137
548.570 58997.848  2536.942 51103.617
548.711 59295.699  2620.468 51481.402
548.852 59157.086  2591.668 51479.469
548.993 59494.313  2646.908 51883.539
549.134 58659.488  2582.249 51517.180
549.275 58498.859  2707.631 51952.695
549.416 57151.105  2571.374 51516.207
549.557 56382.035  2659.136 51852.676
549.698 55255.043  2546.856 51915.195
549.839 54014.961  2640.697 51811.613
549.981 52838.367  2595.367 51717.301
550.122 52030.316  2726.354 52095.398
550.263 50709.191  2629.345 52267.039
550.404 49164.191  2688.721 52215.375
550.545 47675.293  2555.684 52227.590
550.686 46298.129  2649.364 52321.492
550.827 44987.016  2560.608 52255.020
550.968 44214.211  2692.772 52500.832
551.109 43178.938  2645.585 52429.820
551.250 42424.152  2679.169 52626.871
551.391 41473.902  2608.273 52580.570
551.532 40742.898  2601.107 52690.539
551.673 40175.102  2555.390 52616.488
551.814 40217.922  2642.776 53000.891
551.955 40142.508  2576.854 52803.246
552.096 40717.313  2696.441 52973.625
552.237 41148.520  2612.181 52953.691
552.378 41706.422  2702.984 53186.008
552.519 41964.176  2611.033 52964.574
552.660 42763.547  2624.818 53178.086
552.801 43383.527  2537.817 53063.281
552.942 44794.523  2628.505 53539.652
553.083 45921.539  2578.669 53310.449
553.224 47566.434  2708.454 53711.000
553.365 48728.605  2640.560 53723.656
553.506 49828.914  2688.021 53837.105
553.647 50489.391  2560.279 53559.805
553.788 51686.480  2618.830 53764.746
553.928 52643.430  2527.714 53687.766
554.069 54183.512  2643.376 54006.484
554.210 55030.395  2572.404 53689.496
554.351 56386.844  2720.881 54166.445
554.492 56876.902  2636.127 54079.680
554.633 57306.316  2677.091 54205.719
554.774 57312.527  2562.584 53963.152
554.915 57950.895  2594.911 54364.227
555.056 58161.242  2576.700 54342.094
555.196 58831.160  2684.643 54765.535
555.337 58513.621  2624.318 54331.211
555.478 58584.230  2718.362 54570.422
555.619 57999.750  2572.300 54526.984
555.760 57346.148  2650.677 54577.281
555.901 56794.055  2525.154 54732.336
556.042 56324.598  2637.945 54798.051
556.182 55808.137  2582.767 54802.652
556.323 55641.848  2672.917 55254.148
556.464 54427.801  2612.566 54842.668
556.605 53501.785  2671.183 54879.125
556.746 52249.852  2534.071 54812.066
556.886 51486.648  2639.452 55206.250
557.027 50344.996  2526.434 54980.641
557.168 49806.137  2639.974 55316.035
557.309 48896.301  2596.673 55215.887
557.450 48147.754  2701.288 55304.238
557.590 47164.332  2630.315 55329.766
557.731 45941.395  2657.220 55140.398
557.872 44813.801  2559.452 55105.711
558.013 44016.168  2604.857 55335.363
558.153 43197.039  2510.459 55227.570
558.294 42892.109  2644.294 55531.297
558.435 42378.789  2632.062 55429.621
558.576 42222.078  2716.072 55780.332
558.716 41128.422  2589.151 55286.887
558.857 40688.141  2685.427 55577.602
558.998 39983.082  2549.584 55433.418
559.138 39675.266  2616.443 55587.797
559.279 39551.488  2577.964 55484.582
559.420 40012.527  2681.570 55924.551
559.560 39803.918  2635.300 55602.273
559.701 40111.750  2706.745 55844.504
559.842 39740.797  2608.208 55566.398
559.982 39940.355  2624.606 55810.020
560.123 40192.305  2578.665 55783.473
560.264 40710.176  2661.644 55828.391
560.404 41172.996  2566.278 55646.359
560.545 42258.445  2692.796 56141.160
560.686 43021.949  2629.192 56193.848
560.826 43731.902  2693.456 56128.984
560.967 44251.875  2601.037 55896.523
561.108 45158.258  2647.347 56028.809
561.248 45749.309  2541.498 55690.398
561.389 47499.922  2675.817 56303.691
561.529 48673.313  2623.310 55966.824
561.670 50296.332  2779.514 56221.754
561.811 51162.465  2674.944 56004.844
561.951 52307.250  2722.254 56207.750
562.092 53125.473  2630.059 56000.531
562.232 54439.707  2651.207 56223.879
562.373 55432.219  2599.864 56111.566
562.514 57136.305  2699.086 56495.887
562.654 58074.473  2663.925 56131.105
562.795 59219.953  2707.254 56219.266
562.935 59907.648  2609.631 56174.168
563.076 60609.793  2677.913 56298.488
563.216 60926.004  2567.906 56124.945
563.357 61714.641  2657.817 56393.598
563.497 61869.441  2583.457 56117.895
563.638 62583.293  2681.204 56321.313
563.778 63000.992  2656.181 56337.641
563.919 63085.309  2722.392 56424.410
564.059 62775.910  2631.358 56341.668
564.200 62667.871  2687.496 56677.348
564.340 61339.570  2587.144 56016.824
564.481 61396.258  2651.554 56623.859
564.621 60545.750  2604.409 56311.125
564.762 60292.754  2717.905 56711.066
564.902 58957.039  2647.642 56249.832
565.043 58097.410  2719.943 56485.855
565.183 56594.043  2609.393 56264.988
565.324 55431.820  2664.511 56672.090
565.464 53682.145  2531.099 56293.863
565.604 53029.234  2658.455 56887.609
565.745 51439.445  2584.245 56350.438
565.885 50730.344  2741.751 56723.816
566.026 49212.164  2700.423 56348.793
566.166 48382.008  2719.891 56745.609
566.307 46964.730  2617.886 56537.387
566.447 45809.379  2639.101 56483.234
566.587 44845.773  2573.363 56469.551
566.728 44395.648  2664.723 56747.863
566.868 43890.867  2631.903 56542.164
567.009 43861.207  2738.033 56712.891
567.149 43369.141  2656.962 56363.742
567.289 43468.508  2703.990 56680.668
567.430 43233.285  2640.260 56346.418
567.570 43369.352  2673.305 56426.523
567.710 43455.277  2561.073 56202.484
567.851 44421.637  2705.494 56515.922
567.991 45187.449  2629.199 56426.793
568.131 46265.457  2737.900 56670.223
568.272 47111.938  2697.018 56455.387
568.412 48241.734  2720.070 56738.590
568.552 48769.520  2641.753 56430.867
568.693 49795.391  2689.272 56497.340
568.833 50486.344  2573.595 56154.762
568.973 51909.988  2699.029 56366.621
569.114 53141.047  2630.791 56462.125
569.254 54167.629  2753.381 56461.160
569.394 54924.527  2692.312 56342.336
569.534 55871.199  2729.369 56478.164
569.675 56402.973  2612.134 56301.246
569.815 57107.633  2675.137 56474.930
569.955 57478.684  2572.964 56308.980
570.095 58324.852  2674.609 56567.867
570.236 58475.859  2667.030 56184.074
570.376 59165.938  2761.427 56559.551
570.516 58933.016  2673.433 56228.598
570.656 59108.828  2696.245 56454.664
570.797 58274.746  2584.698 55935.227
570.937 58651.844  2686.901 56391.027
571.077 58308.180  2609.996 56177.172
571.217 58453.480  2720.646 56444.898
571.357 58037.129  2630.698 56259.242
571.498 57844.270  2759.764 56457.578
571.638 57234.426  2660.348 56321.258
571.778 56630.211  2699.677 56284.555
571.918 55850.309  2593.636 56191.383
572.058 55384.719  2666.059 56228.059
572.198 54910.711  2597.150 56149.895
572.339 55002.336  2726.849 56486.852
572.479 54352.887  2658.345 56040.367
572.619 54070.301  2726.586 56113.520
572.759 53564.258  2626.335 56061.219
572.899 53392.582  2708.248 56210.617
573.039 52894.086  2612.482 56012.402
573.179 52933.941  2678.977 56202.578
573.319 52570.746  2603.835 55898.547
573.460 53034.063  2705.417 56271.691
573.600 52881.645  2681.271 55967.602
573.740 53149.973  2772.847 56266.070
573.880 52822.508  2628.713 55911.750
574.020 52971.703  2710.007 56071.293
574.160 52713.813  2618.341 55761.520
574.300 53335.734  2719.911 56265.340
574.440 53254.449  2643.750 56079.309
574.580 53474.152  2689.280 56051.988
574.720 53455.660  2679.559 55819.406
574.860 53635.180  2761.053 55977.984
575.000 53035.887  2595.965 55554.422
575.140 53333.320  2691.333 55917.855
575.280 53083.156  2640.914 55649.098
575.420 53260.254  2702.378 55943.258
575.560 52834.707  2624.917 55691.879
575.701 52859.684  2727.197 55853.551
575.840 52277.789  2667.382 55463.727
575.980 51976.453  2737.437 55553.836
576.120 51604.078  2609.720 55753.750
576.260 50819.484  2689.590 55451.867
576.400 50237.953  2575.959 55454.000
576.540 49972.547  2673.804 55685.000
576.680 49460.250  2603.634 55598.559
576.820 49109.762  2680.583 55602.535
576.960 48531.789  2647.546 55439.633
577.100 48269.719  2733.905 55716.172
577.240 47356.043  2602.901 55309.984
577.380 46810.773  2665.587 55437.961
577.520 45973.648  2549.364 55079.723
577.660 46116.590  2682.073 55530.664
577.800 45941.621  2591.317 55519.617
577.940 45924.977  2701.618 55398.715
578.080 45853.949  2643.327 55363.023
578.220 45799.855  2711.707 55437.473
578.360 45415.023  2612.872 55044.613
578.499 45474.477  2677.644 55106.039
578.639 45472.160  2563.230 55026.305
578.779 46007.969  2671.591 55295.109
578.919 46320.324  2594.103 55029.250
579.059 47272.383  2699.980 55522.500
579.199 47453.402  2622.451 55062.352
579.339 48017.910  2707.850 55025.805
579.479 48187.117  2600.102 54776.594
579.618 48849.777  2666.871 54974.629
579.758 49086.590  2532.288 54675.492
579.898 49868.398  2610.521 54826.258
580.038 50520.934  2558.751 54704.273
580.178 51404.172  2664.938 54904.586
580.318 51699.207  2597.788 54591.547
580.457 52820.293  2693.900 54954.113
580.597 53006.859  2610.293 54571.777
580.737 53304.035  2644.021 54542.988
580.877 53157.371  2517.210 54210.113
581.017 54077.027  2610.500 54758.242
581.156 54006.625  2549.067 54210.730
581.296 54952.734  2715.931 54677.707
581.436 54840.266  2637.704 54259.355
581.576 55255.215  2714.243 54469.957
581.715 54780.285  2592.158 54123.707
581.855 54903.660  2638.729 54359.164
581.995 54478.848  2551.801 54063.344
582.135 54499.219  2601.283 54238.645
582.274 54290.859  2552.726 54170.086
582.414 54397.195  2649.646 54322.168
582.554 54003.980  2585.363 53938.789
582.694 53916.539  2677.714 54087.086
582.833 53530.527  2614.722 54046.184
582.973 53010.891  2632.604 53944.480
583.113 52412.258  2541.120 53851.574
583.252 51709.266  2586.187 53671.465
583.392 51356.617  2468.013 53623.973
583.532 51299.934  2624.516 53844.984
583.671 50719.668  2533.097 53547.926
583.811 50542.109  2652.415 53685.043
583.951 49984.922  2568.103 53452.988
584.090 49525.531  2607.000 53558.289
584.230 48692.586  2501.759 53363.512
584.370 48421.676  2519.274 53535.762
584.509 47994.969  2448.684 53452.414
584.649 47759.250  2540.530 53475.527
584.789 47265.633  2522.479 53222.301
584.928 47043.262  2603.668 53443.125
585.068 46190.902  2511.864 52898.262
585.207 46064.621  2574.187 53339.824
585.347 45229.434  2478.796 53051.672
585.487 44755.316  2499.667 53184.469
585.626 44065.504  2417.935 52894.609
585.766 43879.742  2511.026 53056.484
585.905 43400.402  2475.901 52979.203
586.045 43177.348  2575.520 53145.652
586.184 42395.070  2471.688 52602.406
586.324 42118.977  2582.146 52956.117
586.464 41204.375  2438.469 52711.355
586.603 40685.723  2537.870 52766.586
586.743 39804.285  2405.840 52424.195
586.882 39593.320  2489.974 52689.684
587.022 39004.301  2449.869 52459.262
587.161 38831.953  2548.350 52546.340
587.301 38537.621  2471.207 52404.023
587.440 38291.605  2576.509 52491.238
587.580 37613.063  2455.603 52127.496
587.719 37314.551  2455.938 52156.020
587.859 37075.059  2428.173 52055.461
587.998 36964.785  2457.723 52005.684
588.138 37066.945  2352.786 52097.582
588.277 37331.965  2474.420 52009.090
588.417 37464.785  2371.818 51718.270
588.556 38094.004  2507.356 51998.664
588.696 38242.148  2409.221 51792.086
588.835 38862.691  2468.498 51903.445
588.974 39112.922  2401.160 51496.855
589.114 40121.852  2444.567 51872.734
589.253 40797.418  2391.448 51565.566
589.393 41729.336  2428.313 51467.453
589.532 42619.891  2350.343 51317.070
589.672 43842.734  2430.984 51318.441
589.811 44748.805  2349.677 51065.695
589.950 45875.328  2445.197 51204.648
590.090 46694.980  2328.592 50932.781
590.229 48161.027  2414.636 51338.535
590.369 48951.785  2328.013 50991.898
590.508 50147.656  2373.239 51019.234
590.647 51282.723  2331.534 51002.340
590.787 52392.098  2426.190 50947.355
590.926 53158.637  2323.344 50710.078
591.065 53843.656  2394.374 50593.250
591.205 54447.633  2311.844 50463.801
591.344 54709.914  2338.029 50256.273
591.483 55261.762  2310.133 50364.270
591.623 55563.215  2342.305 50290.914
591.762 55871.734  2280.187 50236.277
591.901 56226.863  2367.149 50344.996
592.041 55790.883  2288.337 49897.918
592.180 55722.551  2373.068 50113.363
592.319 55079.199  2250.618 49783.973
592.459 54810.824  2354.014 49846.758
592.598 53902.012  2269.785 49612.832
592.737 53281.055  2334.664 49718.078
592.877 52049.488  2235.811 49333.086
593.016 51604.672  2352.426 49783.293
593.155 50523.520  2283.295 49711.750
593.294 49393.137  2348.550 49710.973
593.434 47971.211  2252.876 49611.391
593.573 46812.090  2354.194 49749.941
593.712 45123.480  2224.048 49395.648
593.851 43670.008  2309.909 49301.621
593.990 42391.293  2201.240 49368.250
594.130 41299.172  2321.195 49515.699
594.269 39770.352  2232.021 49261.523
594.408 38553.047  2308.503 49195.324
594.547 37262.984  2217.872 49035.805
594.687 36261.078  2282.127 49150.484
594.826 34985.781  2197.545 48737.211
594.965 34330.715  2285.627 48998.063
595.104 33582.000  2237.275 48920.375
595.243 32924.551  2282.875 48851.613
595.382 32254.021  2193.218 48619.539
595.522 31911.125  2266.283 48610.438
595.661 31477.520  2168.879 48339.512
595.800 31687.352  2301.275 48652.762
595.939 31403.074  2160.456 48214.633
596.078 31870.367  2263.523 48560.336
596.217 31827.391  2157.036 48065.863
596.356 32499.318  2234.041 48346.484
596.496 32791.336  2171.117 47999.637
596.635 33582.836  2270.201 48169.820
596.774 33932.105  2134.678 47782.676
596.913 34876.414  2237.288 48023.801
597.052 35331.934  2153.561 47710.996
597.191 36219.832  2231.793 47818.414
597.330 37134.563  2167.604 47900.695
597.469 37808.074  2225.210 47715.410
597.608 38283.840  2118.800 47388.805
597.747 39484.246  2205.875 47775.008
597.886 39948.828  2150.864 47518.492
598.026 40601.484  2204.120 47548.082
598.165 40844.891  2109.414 47081.246
598.304 41584.836  2224.414 47273.691
598.443 41712.676  2099.423 46964.578
598.582 42181.816  2166.816 47052.266
598.721 42257.918  2126.844 46882.254
598.860 42577.957  2176.090 47018.496
598.999 42371.211  2078.161 46623.410
599.138 42493.973  2164.101 46694.527
599.277 42260.246  2083.426 46560.773
599.416 42237.945  2182.750 46784.477
599.555 41455.449  2081.614 46316.414
599.694 41241.313  2156.577 46503.852
599.833 40652.730  2070.271 46361.414
599.972 40274.840  2133.879 46393.359
600.111 39480.156  2082.313 46195.789
600.250 39083.082  2137.446 46337.477
600.388 38208.188  2061.271 46030.508
600.527 37502.277  2114.551 46068.598
600.666 36620.805  2027.923 45829.879
600.805 35965.711  2082.929 45953.984
600.944 35120.309  2013.308 45728.328
601.083 34586.336  2093.639 45900.871
601.222 33588.699  2036.682 45503.781
601.361 33011.195  2094.765 45629.871
601.500 32175.258  2003.257 45438.590
601.639 31640.533  2103.263 45476.082
601.778 30851.693  1971.410 45326.543
601.917 30318.225  2081.040 45292.512
602.055 29711.475  1989.030 45236.578
602.194 29408.754  2085.478 45294.719
602.333 28751.406  1970.534 44905.109
602.472 28625.854  2072.289 45094.754
602.611 27974.719  1958.382 44643.902
602.750 28044.072  2036.507 45083.547
602.888 27494.379  1945.392 44667.637
603.027 27437.619  2026.077 44838.859
603.166 27055.412  1946.279 44416.293
603.305 27104.086  2034.215 44635.453
603.444 26778.244  1928.534 44306.949
603.583 26963.480  2021.665 44542.660
603.721 26775.279  1932.437 44236.094
603.860 27092.631  2023.449 44384.828
603.999 27051.645  1918.591 44125.391
604.138 27269.604  2012.700 44232.629
604.277 27348.211  1925.777 44127.031
604.415 27480.705  1996.058 44133.227
604.554 27432.289  1904.503 43898.434
604.693 27814.893  1966.675 44142.563
604.832 27829.857  1898.674 43768.262
604.970 28332.734  1972.384 44015.543
605.109 28278.793  1879.848 43622.699
605.248 28708.578  1979.428 43837.859
605.387 28796.350  1861.175 43443.172
605.525 29195.467  1971.254 43620.633
605.664 29292.145  1871.350 43323.695
605.803 29803.049  1940.560 43432.656
605.941 30011.590  1861.006 43111.539
606.080 30491.256  1923.329 43323.027
606.219 30607.457  1866.658 42954.684
606.357 31149.293  1928.912 43124.211
606.496 31308.994  1819.971 42887.902
606.635 31714.617  1923.896 42936.707
606.773 31844.744  1853.889 42685.234
606.912 32475.230  1915.061 42955.941
607.051 32660.695  1825.527 42685.414
607.189 33070.609  1860.364 42771.547
607.328 33230.363  1807.156 42419.039
607.467 33744.148  1881.946 42537.910
607.605 33813.750  1785.909 42248.547
607.744 34372.141  1871.706 42508.031
607.883 34319.047  1808.329 42074.566
608.021 34700.203  1889.521 42269.457
608.160 34670.684  1788.949 42038.051
608.298 35047.270  1871.681 42236.676
608.437 34812.699  1825.983 41855.996
608.576 34955.539  1853.708 41859.293
608.714 34904.023  1792.775 41727.813
608.853 35045.703  1871.535 41919.270
608.991 34853.758  1760.964 41822.410
609.130 34637.574  1877.227 41715.941
609.268 34316.969  1807.985 41555.105
609.407 34159.688  1844.216 41654.488
609.546 33580.492  1795.328 41384.344
609.684 33237.766  1826.343 41555.148
609.823 32551.611  1765.123 41197.457
609.961 32191.455  1870.691 41342.902
610.100 31428.643  1716.827 41257.625
610.238 30852.857  1828.933 41366.496
610.377 29846.379  1721.578 41002.180
610.515 29259.822  1806.300 41070.352
610.654 28357.277  1746.993 40869.430
610.792 27618.684  1804.344 40877.340
610.931 26688.219  1748.996 40799.996
611.069 25875.063  1788.005 40722.676
611.208 24922.734  1724.052 40538.383
611.346 24293.826  1818.990 40737.418
611.485 23199.699  1733.151 40363.621
611.623 22355.098  1796.778 40320.199
611.761 21545.453  1717.638 40200.441
611.900 20889.127  1788.725 40254.895
612.038 20232.451  1729.765 40181.988
612.177 19761.324  1798.256 40317.762
612.315 19040.480  1677.176 40100.363
612.454 18716.289  1774.620 40218.125
612.592 18149.701  1697.083 39906.902
612.730 17962.576  1797.622 39985.707
612.869 17519.539  1686.640 39694.770
613.007 17556.963  1768.938 39887.426
613.146 17358.309  1682.717 39594.172
613.284 17432.189  1766.630 39696.820
613.422 17550.576  1725.995 39449.754
613.561 17787.600  1744.694 39587.379
613.699 17853.213  1674.426 39221.828
613.837 18364.916  1760.801 39575.715
613.976 18645.496  1645.342 39263.734
614.114 19274.477  1774.618 39387.578
614.252 19639.492  1686.781 39043.121
614.391 20309.375  1710.220 39126.531
614.529 20789.555  1672.540 38847.789
614.667 21576.893  1731.395 39016.832
614.806 21923.789  1642.527 38571.117
614.944 22808.176  1770.662 38948.551
615.082 23245.951  1657.916 38734.406
615.221 23871.924  1727.015 38812.336
615.359 24259.551  1616.294 38454.309
615.497 24917.633  1708.123 38631.281
615.635 25332.656  1627.163 38419.863
615.774 25921.205  1710.350 38525.910
615.912 26158.352  1602.547 38223.594
616.050 26659.551  1711.265 38326.750
616.188 26797.635  1599.085 38054.359
616.327 27144.971  1707.578 38208.895
616.465 27213.176  1630.330 38141.414
616.603 27366.191  1686.672 38168.734
616.741 27207.570  1619.210 37974.984
616.880 27100.674  1651.182 37877.234
617.018 26986.941  1626.092 37850.852
617.156 26812.137  1694.450 37806.465
617.294 26463.273  1568.339 37673.125
617.432 26367.111  1701.664 37829.164
617.571 25824.783  1624.045 37556.727
617.709 25387.264  1671.960 37445.410
617.847 24771.258  1562.281 37387.586
617.985 24315.094  1656.567 37335.137
618.123 23557.980  1585.147 37138.090
618.261 23114.852  1639.479 37290.871
618.400 22399.410  1546.241 36999.449
618.538 22045.379  1640.373 37162.605
618.676 21287.883  1559.870 36943.703
618.814 20756.434  1670.317 37072.840
618.952 20036.982  1558.244 36946.301
619.090 19564.150  1651.672 37035.645
619.228 18819.705  1556.402 36755.766
619.366 18239.904  1606.917 36790.168
619.505 17629.137  1540.368 36636.734
619.643 17412.148  1620.200 36805.715
619.781 16833.607  1539.221 36452.945
619.919 16644.668  1644.964 36689.941
620.057 16204.896  1560.288 36441.852
620.195 15909.891  1609.296 36394.805
620.333 15532.884  1514.296 36276.555
620.471 15281.382  1578.008 36110.109
620.609 15032.295  1507.214 36010.480
620.747 14948.980  1569.541 36147.445
620.885 14808.840  1485.018 36000.605
621.023 14903.532  1564.336 36097.141
621.161 14923.311  1474.508 35908.883
621.299 15133.867  1588.353 36002.574
621.437 15110.883  1490.193 35705.945
621.575 15418.970  1583.831 35808.680
621.713 15450.447  1513.178 35642.047
621.851 15638.277  1555.686 35784.965
621.989 15628.235  1459.394 35460.391
622.127 15954.437  1539.371 35611.746
622.265 16130.699  1467.744 35508.527
622.403 16551.619  1588.248 35492.867
622.541 16761.010  1504.966 35381.664
622.679 17126.887  1581.542 35417.184
622.817 17230.994  1490.853 35288.496
622.955 17511.879  1587.059 35272.914
623.093 17527.928  1471.035 34965.469
623.231 17678.830  1529.141 34993.277
623.369 17739.117  1436.144 34875.867
623.507 17959.342  1515.014 34996.730
623.645 17978.711  1454.521 34803.793
623.783 18307.711  1554.513 34954.680
623.920 18278.766  1458.323 34750.750
624.058 18566.463  1563.137 34891.734
624.196 18459.559  1475.201 34700.762
624.334 18476.105  1540.471 34579.813
624.472 18288.908  1449.556 34496.602
624.610 18364.279  1546.658 34688.313
624.748 18086.387  1386.130 34377.211
624.886 18228.025  1531.417 34529.594
625.023 18036.273  1425.051 34424.973
625.161 18049.920  1519.209 34452.309
625.299 17911.424  1463.733 34308.383
625.437 17813.789  1536.909 34325.957
625.575 17455.521  1441.203 34115.699
625.713 17395.363  1501.811 34176.570
625.850 17047.420  1433.805 33928.824
625.988 16977.928  1521.150 34124.023
626.126 16553.047  1396.205 33936.211
626.264 16463.574  1486.165 33898.055
626.402 16290.169  1424.021 33814.945
626.539 16311.108  1493.921 33878.684
626.677 16128.539  1430.680 33875.086
626.815 16058.050  1517.896 33888.930
626.953 15747.638  1415.331 33740.090
627.090 15623.584  1490.058 33706.133
627.228 15380.563  1407.255 33540.785
627.366 15293.005  1465.740 33553.973
627.504 15050.351  1396.688 33436.531
627.641 15012.867  1472.865 33524.574
627.779 14815.692  1390.001 33378.156
627.917 14811.633  1460.954 33494.340
628.055 14670.159  1398.660 33287.754
628.192 14586.683  1468.371 33223.699
628.330 14442.550  1388.578 33043.559
628.468 14405.166  1470.191 33147.078
628.605 14067.698  1354.271 32943.230
628.743 14063.954  1448.391 32995.000
628.881 13932.901  1378.284 32946.617
629.018 13966.775  1434.023 33076.043
629.156 13764.565  1367.770 32811.969
629.294 13870.737  1461.848 32896.199
629.431 13649.601  1385.358 32685.938
629.569 13697.284  1454.525 32776.738
629.707 13489.299  1381.492 32515.076
629.844 13502.738  1476.344 32670.820
629.982 13218.321  1368.337 32410.709
630.119 13159.354  1420.537 32490.846
630.257 13058.779  1344.651 32431.332
630.395 13093.537  1432.810 32504.451
630.532 12943.388  1349.551 32330.018
630.670 13097.397  1458.170 32423.807
630.807 12932.473  1385.561 32335.678
630.945 12893.091  1453.045 32339.598
631.083 12694.580  1351.377 32076.484
631.220 12712.930  1411.551 32211.734
631.358 12509.144  1347.036 32011.367
631.495 12575.527  1422.579 31991.816
631.633 12457.204  1320.476 31838.961
631.770 12605.157  1428.149 31991.174
631.908 12567.959  1362.546 31914.912
632.045 12694.041  1437.145 31972.346
632.183 12651.113  1337.987 31708.678
632.320 12709.917  1408.925 31743.344
632.458 12666.095  1337.451 31569.770
632.595 12781.027  1396.537 31616.404
632.733 12741.340  1305.159 31416.674
632.870 13005.272  1408.967 31615.420
633.008 13017.039  1325.332 31395.934
633.145 13324.177  1427.381 31560.539
633.283 13451.630  1368.301 31416.434
633.420 13641.151  1447.000 31393.768
633.558 13610.343  1353.687 31194.602
633.695 13836.238  1410.480 31340.285
633.833 13757.810  1303.170 30940.559
633.970 14023.604  1384.473 31184.535
634.108 14030.124  1318.055 30972.287
634.245 14317.735  1412.951 31162.348
634.382 14380.312  1326.851 31060.225
634.520 14674.396  1391.833 31137.598
634.657 14713.299  1359.511 31012.633
634.795 14889.330  1409.664 31045.309
634.932 14857.479  1309.182 30826.041
635.069 15019.861  1383.364 30881.330
635.207 14933.526  1331.682 30744.414
635.344 15015.019  1385.825 30782.123
635.482 14867.127  1299.622 30555.818
635.619 14990.963  1385.063 30845.086
635.756 14844.976  1316.301 30614.523
635.894 14930.015  1384.578 30649.709
636.031 14751.891  1343.040 30431.010
636.168 14748.592  1402.337 30576.701
636.306 14467.496  1305.227 30383.492
636.443 14408.998  1421.126 30537.691
636.580 14069.624  1291.193 30362.461
636.718 13956.463  1387.101 30494.293
636.855 13568.039  1306.583 30199.488
636.992 13442.727  1378.003 30394.730
637.130 13106.616  1328.287 30177.381
637.267 12985.643  1361.867 30272.756
637.404 12659.746  1339.580 30186.297
637.541 12378.776  1371.268 30168.691
637.679 11995.753  1277.541 29991.137
637.816 11772.463  1384.914 29986.992
637.953 11390.735  1302.224 29884.012
638.090 11264.101  1374.739 30134.654
638.228 10859.874  1290.384 29889.135
638.365 10669.856  1369.610 29959.232
638.502 10354.411  1289.931 29738.203
638.639 10258.904  1371.991 29828.893
638.777  9932.879  1265.439 29564.869
638.914  9828.336  1361.952 29583.416
639.051  9537.562  1258.722 29409.660
639.188  9527.996  1393.506 29500.752
639.325  9275.608  1289.298 29306.477
639.463  9331.966  1372.838 29499.725
639.600  9105.198  1294.297 29107.986
639.737  9192.614  1362.127 29353.438
639.874  9073.989  1290.047 29107.711
640.011  9159.021  1340.571 29129.605
640.148  9121.976  1263.301 28911.986
640.286  9295.610  1333.424 28958.629
640.423  9245.205  1257.944 28742.801
640.560  9451.396  1354.307 28769.797
640.697  9421.181  1240.301 28556.648
640.834  9612.609  1281.494 28674.936
640.971  9729.690  1233.064 28425.201
641.108 10032.535  1312.547 28462.180
641.245 10141.230  1239.017 28308.234
641.383 10408.712  1310.384 28285.277
641.520 10553.449  1253.424 28084.482
641.657 10877.834  1314.747 28025.125
641.794 11013.782  1244.824 27881.984
641.931 11262.790  1302.727 27786.293
642.068 11397.592  1237.581 27679.619
642.205 11671.280  1295.407 27690.000
642.342 11775.564  1209.714 27569.793
642.479 12136.486  1311.394 27726.164
642.616 12198.961  1183.361 27520.154
642.753 12511.565  1297.717 27696.629
642.890 12600.250  1222.811 27498.902
643.027 12808.068  1294.467 27511.834
643.164 12799.213  1219.047 27366.883
643.301 12902.295  1266.704 27339.426
643.438 12786.696  1176.381 27099.428
643.575 12858.161  1268.841 27103.582
643.712 12751.652  1195.171 26938.314
643.849 12887.153  1251.511 27096.338
643.986 12731.332  1184.211 26848.916
644.123 12812.706  1255.827 26953.938
644.260 12653.768  1179.697 26700.277
644.397 12699.549  1256.921 26788.176
644.534 12515.851  1193.984 26647.385
644.671 12398.589  1248.364 26569.428
644.808 12122.450  1133.081 26514.926
644.945 12039.462  1241.091 26472.818
645.082 11759.653  1173.794 26295.484
645.219 11672.961  1231.364 26438.369
645.356 11340.439  1160.487 26152.615
645.492 11290.474  1197.087 26291.064
645.629 11030.209  1154.847 26067.973
645.766 11008.957  1235.197 26161.225
645.903 10682.188  1154.437 25880.408
646.040 10560.427  1211.707 25968.039
646.177 10208.994  1105.984 25772.615
646.314 10100.999  1222.881 25820.141
646.451  9802.784  1129.374 25702.166
646.587  9670.772  1190.414 25749.055
646.724  9380.937  1141.434 25539.668
646.861  9305.012  1183.337 25633.789
646.998  9120.727  1108.244 25474.588
647.135  9127.944  1196.744 25575.201
647.272  8942.859  1103.627 25367.627
647.408  8979.204  1220.677 25451.916
647.545  8787.405  1141.897 25264.318
647.682  8734.990  1186.174 25294.010
647.819  8598.238  1135.581 25204.418
647.956  8598.956  1189.267 25248.258
648.092  8437.864  1067.931 25103.350
648.229  8528.966  1163.771 25255.998
648.366  8467.347  1085.371 25122.928
648.503  8624.472  1189.307 25260.207
648.640  8565.939  1095.117 24984.893
648.776  8700.745  1169.311 25001.475
648.913  8657.216  1115.384 24873.689
649.050  8789.274  1170.774 25032.729
649.186  8778.529  1072.734 24967.361
649.323  8922.750  1133.644 25082.980
649.460  8881.305  1064.981 24866.828
649.597  9078.620  1166.791 25028.064
649.733  9041.901  1065.187 24809.020
649.870  9292.840  1164.384 25037.705
650.007  9291.987  1079.464 24841.832
650.143  9508.949  1141.011 24909.080
650.280  9561.417  1107.097 24814.227
650.417  9715.555  1143.241 24924.211
650.553  9664.000  1061.314 24777.211
650.690  9794.364  1140.981 24843.559
650.827  9768.982  1071.391 24729.607
650.963  9932.554  1158.564 24840.693
651.100  9861.858  1049.217 24623.115
651.237 10097.080  1167.884 24864.537
651.373 10053.065  1064.084 24719.123
651.510 10251.303  1139.504 24820.199
651.647 10175.864  1074.587 24633.291
651.783 10341.669  1174.794 24825.693
651.920 10262.037  1066.831 24652.238
652.056 10346.009  1157.684 24791.488
652.193 10196.907  1050.671 24601.674
652.330 10293.104  1123.274 24792.545
652.466 10194.630  1073.254 24695.564
652.603 10310.765  1147.391 24928.150
652.739 10233.565  1087.771 24783.676
652.876 10272.424  1134.804 24865.621
653.012 10183.426  1093.087 24768.314
653.149 10248.960  1182.497 24852.869
653.285 10112.158  1062.921 24732.998
653.422 10170.590  1172.144 24794.588
653.559 10088.614  1089.164 24889.486
653.695 10055.393  1129.351 24961.572
653.832  9868.200  1066.011 24763.443
653.968  9974.056  1164.571 24941.539
654.105  9822.290  1062.771 24890.928
654.241  9886.081  1131.001 25062.730
654.378  9769.916  1071.507 24887.926
654.514  9886.258  1185.907 25012.088
654.651  9721.905  1100.811 24922.461
654.787  9748.974  1173.204 24962.840
654.923  9598.132  1076.267 24852.432
655.060  9655.856  1158.864 25027.031
655.196  9478.705  1069.424 24841.256
655.333  9589.343  1158.224 25059.258
655.469  9457.145  1067.097 24998.811
655.606  9591.575  1150.894 25213.807
655.742  9488.721  1071.157 25023.869
655.878  9636.095  1177.591 25177.557
656.015  9568.977  1132.097 25053.273
656.151  9644.918  1183.047 25122.918
656.288  9496.586  1099.057 24884.225
656.424  9528.951  1148.764 25066.449
656.560  9454.329  1091.387 25051.922
656.697  9561.910  1176.031 25286.188
656.833  9459.981  1068.981 25147.820
656.970  9586.687  1168.774 25415.145
657.106  9521.571  1098.027 25337.111
657.242  9713.649  1158.044 25594.943
657.379  9683.771  1096.897 25549.518
657.515  9833.353  1198.977 25749.967
657.651  9758.530  1071.477 25699.666
657.788  9918.958  1182.471 25963.352
657.924  9853.616  1113.001 25952.691
658.060  9968.475  1187.747 26209.980
658.197  9917.696  1104.721 26211.115
658.333 10077.037  1204.737 26450.920
658.469 10019.855  1121.054 26462.150
658.605 10171.787  1179.097 26673.096
658.742 10125.248  1099.514 26587.057
658.878 10416.316  1213.327 27061.436
659.014 10300.015  1141.584 26875.473
659.151 10494.319  1231.531 27192.777
659.287 10368.167  1125.807 27097.717
659.423 10471.759  1192.341 27397.223
659.559 10386.504  1127.701 27285.551
659.695 10478.818  1164.787 27469.313
659.832 10474.446  1139.191 27576.223
659.968 10566.395  1210.107 27689.744
660.104 10535.060  1122.691 27666.400
660.240 10718.334  1214.997 27894.408
660.377 10667.245  1129.937 27773.807
660.513 10911.670  1233.144 28070.627
660.649 10830.064  1149.427 27917.748
660.785 10925.039  1206.407 28061.795
660.921 10738.711  1116.391 27702.240
661.057 10672.272  1192.171 27301.359
661.194 10336.807  1082.064 26325.943
661.330 10176.738  1147.431 25410.934
661.466  9816.240  1049.994 24466.016
661.602  9878.298  1110.304 24311.135
661.738  9877.180  1026.591 24143.660
661.874 10081.230  1142.647 24212.246
662.010 10021.666  1052.921 23873.424
662.147 10111.017  1104.117 23803.230
662.283 10106.418  1029.807 23694.600
662.419 10240.354  1093.404 23741.758
662.555 10160.128  1025.844 23581.551
662.691 10272.369  1088.461 23662.229
662.827 10222.554  1001.124 23448.588
662.963 10427.792  1076.634 23590.551
663.099 10392.544  1029.551 23386.506
663.235 10504.925  1090.901 23391.975
663.371 10475.057  1005.277 23320.721
663.507 10625.078  1098.807 23367.752
663.643 10599.473  1029.164 23232.215
663.779 10728.064  1116.397 23402.504
663.916 10608.979  1005.307 23192.672
664.052 10686.101  1095.744 23310.865
664.188 10439.555  1003.684 23143.887
664.324 10488.543  1074.681 23293.020
664.460 10346.185  1000.984 23143.838
664.596 10350.850  1065.967 23191.674
664.732 10210.320   997.561 22986.393
664.868 10218.659  1058.087 23125.711
665.004 10090.523  1029.644 22978.047
665.140 10057.395  1085.387 23020.455
665.276  9803.779   985.961 22894.568
665.411  9804.401  1065.624 23018.938
665.547  9517.379   980.247 22829.953
665.683  9510.254  1078.374 23055.951
665.819  9207.759  1013.214 22789.594
665.955  9114.964  1061.177 22970.492
666.091  8789.895   951.797 22779.305
666.227  8765.373  1078.771 22848.543
666.363  8532.388   974.657 22726.283
666.499  8512.666  1057.331 22792.867
666.635  8222.700   991.037 22561.816
666.771  8211.481  1088.854 22721.162
666.907  7922.710   975.661 22508.822
667.042  7844.818  1046.574 22710.406
667.178  7587.016   955.747 22659.670
667.314  7528.251  1051.221 22638.568
667.450  7286.506   970.081 22506.824
667.586  7272.557  1066.517 22607.625
667.722  7086.015   960.234 22471.041
667.858  7112.787  1029.504 22537.189
667.993  7058.288   995.057 22453.326
668.129  7119.516  1057.714 22478.732
668.265  7026.164   941.507 22309.154
668.401  7222.936  1079.814 22477.910
668.537  7141.317   980.487 22332.559
668.673  7218.448  1061.167 22381.654
668.808  7197.440   952.071 22332.490
668.944  7348.461  1031.837 22445.176
669.080  7359.653   966.817 22285.443
669.216  7550.041  1033.557 22290.764
669.351  7625.859   961.247 22073.664
669.487  7925.813  1047.707 22248.400
669.623  8070.972   966.101 22007.533
669.759  8457.153  1041.811 22217.814
669.894  8600.404   968.251 22015.844
670.030  8923.213  1034.491 22097.797
670.166  9140.037   981.627 22040.361
670.302  9487.105  1028.227 22121.764
670.437  9655.374   970.241 21971.063
670.573  9961.582  1002.557 21964.318
670.709 10122.300   932.534 21855.871
670.844 10581.045  1048.284 22022.373
670.980 10831.136   963.247 21890.303
671.116 11276.014  1073.221 21991.461
671.252 11426.119   955.924 21695.637
671.387 11878.237  1051.937 21885.879
671.523 12045.451   977.374 21725.438
671.659 12333.890  1019.787 21811.652
671.794 12442.271   954.691 21688.842
671.930 12753.673  1029.111 21816.574
672.065 12824.021   910.204 21616.463
672.201 13201.365  1045.034 21771.281
672.337 13237.837   937.177 21573.547
672.472 13532.229  1051.231 21727.730
672.608 13545.420   970.644 21548.859
672.744 13707.671  1041.631 21596.041
672.879 13628.402   967.204 21405.924
673.015 13831.154  1021.391 21622.111
673.150 13717.398   942.011 21393.078
673.286 13863.330  1061.444 21535.613
673.422 13671.738   937.031 21413.242
673.557 13692.470  1043.924 21507.795
673.693 13450.248   941.587 21352.014
673.828 13410.419  1026.751 21477.266
673.964 13152.397   942.344 21304.641
674.099 13162.839  1020.001 21454.383
674.235 12859.620   943.934 21249.086
674.370 12824.508  1033.037 21408.000
674.506 12448.112   918.914 21199.016
674.641 12293.628  1019.457 21264.064
674.777 11948.079   958.007 21170.287
674.912 11804.900  1021.844 21363.096
675.048 11355.872   946.864 21136.166
675.183 11129.270  1036.051 21251.045
675.319 10699.222   936.954 21106.746
675.454 10503.433  1038.541 21206.516
675.590 10011.461   918.304 21012.654
675.725  9816.789  1021.494 21073.240
675.861  9490.437   918.007 21023.975
675.996  9359.198  1038.481 21138.357
676.132  8999.540   950.727 21025.676
676.267  8873.722  1075.027 21115.033
676.402  8522.293   978.294 20941.494
676.538  8286.141  1013.234 21031.109
676.673  7926.049   943.751 20902.270
676.809  7773.173  1008.347 21009.008
676.944  7450.735   960.854 20814.268
677.079  7279.220  1018.941 20920.545
677.215  7039.918   941.877 20756.965
677.350  7011.603  1037.814 20911.348
677.486  6785.907   936.834 20698.568
677.621  6805.149  1026.504 20837.979
677.756  6588.747   935.077 20664.428
677.892  6688.171  1047.311 20867.309
678.027  6486.036   939.347 20619.617
678.162  6650.211  1028.891 20904.510
678.298  6529.476   943.137 20613.719
678.433  6585.917  1011.577 20755.229
678.568  6481.015   933.761 20524.363
678.704  6617.740  1012.574 20642.102
678.839  6623.438   924.241 20491.131
678.974  6920.979  1032.164 20666.371
679.110  6903.028   926.141 20439.279
679.245  7168.083  1025.407 20694.594
679.380  7196.900   924.621 20512.264
679.515  7487.635  1000.347 20621.750
679.651  7620.110   917.104 20539.055
679.786  7883.171  1030.454 20534.434
679.921  7926.306   938.121 20384.053
680.056  8221.324  1013.444 20551.875
680.192  8283.826   913.404 20261.324
680.327  8633.771  1018.421 20433.330
680.462  8727.738   905.421 20265.875
680.597  9137.477  1030.261 20463.660
680.733  9223.965   929.411 20242.369
680.868  9528.553  1008.784 20377.539
681.003  9644.197   939.984 20196.895
681.138  9959.855   993.621 20299.459
681.273 10100.370   951.327 20203.342
681.409 10345.282   990.457 20315.277
681.544 10385.413   897.237 20161.170
681.679 10633.941  1009.457 20245.141
681.814 10638.239   912.791 20068.057
681.949 10871.631   999.737 20180.684
682.084 10942.942   925.341 20030.096
682.220 11157.167  1004.767 20132.791
682.355 11140.639   927.557 19952.930
682.490 11343.000   976.507 20032.748
682.625 11377.308   933.184 19942.367
682.760 11564.286  1000.361 20029.799
682.895 11574.461   923.234 19954.701
683.030 11749.818  1019.774 20093.707
683.165 11684.094   964.311 19954.479
683.300 11741.259  1007.027 20006.021
683.436 11592.843   916.004 19857.801
683.571 11650.515  1001.691 19968.426
683.706 11558.539   925.711 19843.178
683.841 11678.034   998.151 19919.990
683.976 11518.955   945.364 19797.742
684.111 11589.760  1001.577 19915.441
684.246 11569.155   962.031 19858.617
684.381 11649.569  1024.854 19956.699
684.516 11531.151   965.831 19906.068
684.651 11573.626  1012.017 19971.854
684.786 11369.280   935.014 19757.457
684.921 11420.568  1025.521 19895.371
685.056 11149.214   912.177 19721.967
685.191 11179.035  1055.311 19808.104
685.326 11014.323   952.174 19675.779
685.461 11042.675  1033.087 19754.961
685.596 10760.579   946.437 19570.674
685.731 10755.721  1001.831 19697.182
685.866 10609.695   934.834 19615.014
686.001 10616.066  1030.617 19713.170
686.136 10369.812   922.884 19549.605
686.271 10383.482  1021.301 19742.781
686.406 10165.404   961.071 19544.424
686.541 10111.169  1011.381 19669.465
686.675  9898.490   932.297 19512.457
686.810  9842.469   982.854 19582.600
686.945  9655.740   955.247 19498.656
687.080  9625.541  1046.274 19589.070
687.215  9366.529   931.327 19399.203
687.350  9341.185  1025.644 19514.063
687.485  9063.695   923.834 19311.641
687.620  9110.157  1046.634 19488.619
687.755  8886.412   949.034 19338.908
687.889  8842.394  1033.137 19469.957
688.024  8664.611   980.514 19379.490
688.159  8597.493  1004.631 19438.092
688.294  8337.821   927.221 19250.008
688.429  8333.115  1018.311 19431.797
688.564  8122.313   919.481 19247.361
688.698  8110.962  1019.471 19380.084
688.833  7940.873   981.794 19243.529
688.968  7888.294  1002.234 19304.156
689.103  7754.813   953.834 19195.738
689.238  7756.011  1014.294 19211.156
689.372  7622.369   918.821 19094.686
689.507  7700.177  1029.144 19241.895
689.642  7504.735   939.357 19012.074
689.777  7623.913  1044.771 19206.615
689.912  7458.075   917.347 18932.551
690.046  7576.329  1035.157 19144.344
690.181  7432.521   940.961 18924.143
690.316  7561.479  1030.284 19153.174
690.451  7397.077   916.887 18891.854
690.585  7566.292  1017.027 19060.043
690.720  7545.459   902.884 18911.834
690.855  7785.511  1003.631 19033.053
690.989  7830.716   963.081 18934.742
691.124  8023.931  1004.237 19032.537
691.259  8044.085   930.371 18852.666
691.393  8279.563  1015.337 18943.932
691.528  8312.695   943.857 18782.658
691.663  8523.403   994.444 18875.240
691.798  8599.407   927.630 18784.232
691.932  8955.759  1019.814 18903.621
692.067  8988.177   915.684 18681.717
692.201  9330.892  1033.447 18850.893
692.336  9480.590   939.320 18736.885
692.471  9752.055  1000.044 18799.348
692.605  9843.216   931.557 18621.102
692.740 10134.151   995.750 18710.051
692.875 10303.546   921.704 18630.760
693.009 10607.457   998.620 18648.723
693.144 10706.612   908.870 18484.428
693.278 11120.543   991.217 18645.633
693.413 11271.048   914.404 18449.656
693.548 11593.886  1001.574 18582.367
693.682 11688.431   924.494 18460.117
693.817 11964.779   997.457 18544.705
693.951 12094.744   908.721 18427.961
694.086 12470.639   990.787 18577.701
694.220 12439.023   894.901 18314.473
694.355 12732.418   997.591 18427.232
694.489 12765.489   908.114 18311.098
694.624 12978.984   993.054 18354.053
694.758 13054.766   910.954 18335.828
694.893 13170.554   995.964 18365.740
695.028 13147.778   896.214 18193.195
695.162 13315.377   968.804 18282.889
695.297 13283.312   898.874 18181.180
695.431 13388.220   969.567 18284.789
695.565 13282.614   896.397 18152.965
695.700 13375.926   997.117 18272.396
695.834 13225.471   894.014 18140.307
695.969 13215.555   956.050 18192.461
696.103 13043.644   914.680 18064.381
696.238 13031.067   954.641 18164.213
696.372 12730.942   900.524 18006.914
696.507 12620.761   953.951 18057.758
696.641 12296.735   853.391 17924.416
696.775 12200.360   940.034 18014.805
696.910 11850.342   867.740 17870.965
697.044 11745.819   958.174 18016.916
697.179 11394.338   887.137 17892.555
697.313 11242.782   939.850 17934.760
697.447 10898.501   871.367 17832.223
697.582 10679.485   931.440 17903.408
697.716 10247.646   847.504 17761.441
697.851 10047.638   933.677 17828.695
697.985  9659.729   859.567 17730.813
698.119  9513.154   985.217 17847.131
698.254  9029.923   858.357 17607.760
698.388  8729.154   898.620 17702.576
698.522  8362.459   849.060 17588.961
698.657  8163.164   906.570 17694.457
698.791  7785.722   871.587 17550.898
698.925  7571.213   926.420 17673.895
699.060  7179.817   824.964 17524.617
699.194  7053.972   959.040 17619.068
699.328  6690.230   839.980 17428.277
699.462  6563.555   955.917 17530.584
699.597  6214.073   865.430 17375.592
699.731  6095.551   919.964 17548.494
699.865  5751.096   834.577 17376.914
699.999  5643.007   902.964 17452.389
700.134  5465.056   834.037 17306.748
700.268  5515.700   924.544 17478.184
700.402  5334.295   811.934 17237.930
700.536  5416.530   928.137 17330.938
700.671  5350.648   848.760 17291.439
700.805  5408.163   927.097 17319.115
700.939  5361.917   850.507 17130.475
701.073  5491.742   912.187 17353.217
701.207  5369.767   796.207 17127.826
701.342  5528.448   897.107 17139.754
701.476  5590.543   830.417 17055.957
701.610  5803.555   894.980 17110.779
701.744  5881.443   792.287 16958.201
701.878  6204.137   898.714 17094.439
702.012  6280.079   815.267 16918.115
702.147  6607.170   875.527 17073.842
702.281  6795.792   806.340 16912.543
702.415  7155.566   892.214 16975.781
702.549  7315.211   794.937 16832.734
702.683  7732.373   888.750 16959.443
702.817  7930.581   796.287 16776.719
702.951  8351.042   889.420 16921.875
703.085  8499.073   817.854 16751.900
703.219  8931.955   896.694 16894.533
703.354  9091.979   802.044 16726.385
703.488  9423.715   835.040 16719.756
703.622  9708.529   769.930 16688.545
703.756 10173.570   899.210 16824.098
703.890 10291.792   785.610 16570.457
704.024 10787.547   886.407 16772.066
704.158 10994.258   836.530 16576.535
704.292 11405.767   887.240 16667.848
704.426 11554.058   816.157 16519.596
704.560 11863.332   900.987 16603.277
704.694 11907.841   807.514 16388.699
704.828 12192.215   883.010 16487.766
704.962 12278.640   794.094 16396.629
705.096 12600.658   869.360 16484.807
705.230 12703.786   814.074 16429.639
705.364 12890.374   889.547 16443.686
705.498 13012.942   836.797 16426.746
705.632 13103.351   893.590 16402.543
705.766 13069.052   808.494 16273.941
705.900 13243.270   922.230 16392.580
706.034 13111.234   817.664 16165.973
706.168 13193.982   874.320 16275.585
706.302 13121.381   849.150 16228.244
706.436 13149.586   915.987 16287.412
706.570 12968.054   833.404 16159.158
706.703 12964.186   888.240 16236.047
706.837 12765.000   848.297 16116.816
706.971 12633.154   880.724 16060.125
707.105 12438.772   803.167 15966.978
707.239 12435.041   884.664 16072.659
707.373 12153.525   791.604 15926.828
707.507 12178.897   943.204 16065.324
707.641 11828.965   838.894 15851.723
707.775 11793.036   931.527 16009.608
707.908 11472.835   850.700 15887.724
708.042 11290.646   908.940 15934.496
708.176 10959.174   854.297 15808.085
708.310 10787.872   918.107 15854.931
708.444 10396.077   815.017 15691.503
708.578 10287.679   902.757 15833.695
708.711  9920.979   811.180 15671.177
708.845  9813.305   910.127 15734.729
708.979  9541.709   833.934 15657.055
709.113  9407.891   899.074 15730.164
709.247  9087.639   825.440 15581.073
709.380  8985.427   932.264 15680.238
709.514  8682.255   844.977 15524.167
709.648  8616.736   949.570 15672.800
709.782  8255.215   878.710 15441.102
709.915  8122.716   919.987 15591.394
710.049  7818.257   851.107 15418.199
710.183  7718.519   905.807 15511.262
710.317  7432.963   832.607 15320.464
710.450  7356.238   885.884 15374.970
710.584  7054.820   787.924 15200.861
710.718  7039.608   906.810 15329.360
710.851  6815.842   821.477 15158.290
710.985  6857.274   915.427 15299.532
711.119  6657.072   821.944 15104.684
711.252  6671.880   903.814 15223.323
711.386  6460.475   818.177 15065.559
711.520  6483.863   881.767 15165.824
711.653  6345.194   811.580 15018.437
711.787  6439.009   924.677 15135.306
711.921  6258.561   822.190 14948.721
712.054  6242.508   879.080 15033.403
712.188  6068.027   787.907 14836.335
712.322  6204.765   904.190 14986.291
712.455  6092.439   805.150 14814.319
712.589  6184.581   894.357 14910.132
712.722  6119.833   812.874 14814.064
712.856  6205.707   893.664 14816.963
712.990  6173.162   824.377 14722.886
713.123  6252.120   883.037 14791.468
713.257  6192.158   797.580 14717.020
713.390  6310.146   893.650 14734.642
713.524  6232.554   810.597 14564.647
713.658  6383.866   894.224 14662.927
713.791  6349.234   788.854 14557.525
713.925  6454.385   877.850 14637.691
714.058  6378.276   791.200 14466.180
714.192  6533.785   889.937 14589.919
714.325  6480.982   808.944 14384.201
714.459  6671.394   914.890 14529.943
714.592  6594.519   787.380 14353.299
714.726  6773.800   917.207 14443.414
714.859  6700.479   783.090 14299.354
714.993  6894.903   909.280 14436.466
715.126  6795.035   787.677 14178.038
715.260  6944.509   881.467 14270.360
715.393  6962.944   804.990 14183.322
715.527  7061.722   857.010 14233.298
715.660  6999.770   780.550 14064.017
715.793  7213.865   885.900 14211.216
715.927  7191.020   816.140 14051.595
716.060  7384.808   881.637 14185.187
716.194  7380.179   820.377 14044.256
716.327  7503.281   868.394 14089.618
716.461  7448.859   780.100 13876.243
716.594  7638.747   880.504 14008.466
716.727  7597.001   780.424 13862.951
716.861  7815.080   906.754 13969.714
716.994  7748.334   803.217 13802.752
717.128  7947.316   897.397 13948.854
717.261  7865.590   776.394 13711.967
717.394  8059.272   876.104 13813.869
717.528  8029.870   808.377 13650.354
717.661  8218.028   881.650 13760.623
717.794  8192.289   793.040 13631.275
717.928  8301.291   865.607 13653.361
718.061  8298.649   782.290 13538.113
718.194  8456.940   841.950 13600.726
718.328  8479.306   806.937 13544.852
718.461  8595.387   848.727 13547.443
718.594  8567.882   772.250 13410.442
718.728  8745.303   868.424 13510.288
718.861  8681.247   770.890 13362.527
718.994  8816.756   858.187 13427.069
719.127  8748.407   788.270 13288.441
719.261  8898.242   862.020 13407.820
719.394  8806.427   780.570 13242.522
719.527  8887.198   841.434 13282.712
719.660  8810.413   759.697 13126.650
719.794  8962.494   853.427 13241.876
719.927  8902.183   777.814 13140.821
720.060  8943.590   842.734 13139.447
720.193  8890.122   773.434 13033.086
720.327  9002.030   861.347 13145.271
720.460  8856.368   788.327 12975.811
720.593  8922.152   840.517 13066.470
720.726  8796.561   771.264 12932.229
720.859  8892.492   854.124 13026.104
720.992  8666.134   732.107 12811.149
721.126  8721.052   831.277 12909.385
721.259  8535.290   756.237 12776.521
721.392  8588.341   867.097 12909.489
721.525  8403.713   778.747 12759.625
721.658  8338.417   820.480 12750.921
721.791  8291.742   784.830 12738.196
721.925  8260.210   842.684 12743.648
722.058  8072.608   757.887 12599.997
722.191  8059.740   838.444 12678.593
722.324  7856.318   780.230 12549.202
722.457  7837.586   854.004 12641.268
722.590  7615.494   760.844 12532.902
722.723  7598.159   848.044 12637.009
722.856  7325.217   765.754 12456.688
722.989  7255.392   826.657 12533.937
723.122  7049.463   760.554 12411.858
723.255  6954.524   824.387 12439.647
723.388  6745.589   758.674 12290.116
723.522  6732.070   845.964 12408.698
723.655  6472.745   767.937 12242.581
723.788  6457.387   859.104 12357.772
723.921  6209.385   757.477 12202.322
724.054  6179.136   842.327 12276.900
724.187  6018.284   779.267 12196.876
724.320  5962.616   842.990 12224.462
724.453  5775.437   780.997 12160.064
724.586  5686.778   838.217 12175.813
724.719  5487.640   739.794 12088.195
724.852  5478.405   833.744 12105.468
724.985  5303.733   759.714 11985.276
725.118  5282.921   829.460 12073.452
725.250  5163.625   779.460 11936.091
725.383  5196.237   847.177 11996.456
725.516  5093.442   770.080 11909.612
725.649  5142.070   841.874 11922.031
725.782  5044.655   774.364 11827.933
725.915  5128.143   846.020 11871.209
726.048  5075.764   785.157 11783.647
726.181  5137.636   847.407 11854.460
726.314  5073.547   807.497 11713.002
726.447  5149.145   847.264 11782.391
726.580  5133.953   802.570 11709.967
726.713  5299.578   891.377 11790.985
726.845  5229.149   766.400 11615.635
726.978  5416.127   878.244 11726.913
727.111  5366.249   794.264 11544.332
727.244  5551.450   894.314 11644.718
727.377  5480.602   803.277 11472.423
727.510  5703.977   905.344 11595.119
727.642  5713.948   810.484 11493.317
727.775  5889.853   889.000 11530.677
727.908  5912.814   810.717 11406.339
728.041  6096.749   891.260 11482.515
728.174  6085.750   784.717 11354.997
728.307  6278.748   883.504 11458.242
728.439  6289.400   818.920 11287.791
728.572  6500.064   900.654 11371.993
728.705  6506.486   840.694 11262.266
728.838  6700.170   915.647 11354.555
728.970  6692.679   838.850 11224.396
729.103  6832.000   891.537 11267.216
729.236  6847.691   829.257 11168.231
729.369  7011.669   902.180 11235.077
729.501  6942.328   797.344 11073.949
729.634  7109.556   897.134 11143.748
729.767  7094.884   828.417 11032.977
729.899  7269.962   883.614 11132.829
730.032  7195.700   823.280 10982.278
730.165  7343.472   883.820 11060.370
730.298  7322.060   811.487 10942.393
730.430  7438.761   897.974 11014.831
730.563  7366.853   821.764 10890.934
730.696  7434.787   895.437 10934.122
730.828  7397.275   813.507 10825.604
730.961  7486.240   911.324 10899.144
731.094  7389.885   818.924 10766.829
731.226  7458.790   878.714 10831.028
731.359  7372.888   834.387 10712.931
731.491  7409.032   875.764 10779.119
731.624  7280.250   779.450 10629.688
731.757  7346.579   877.994 10701.896
731.889  7229.003   800.464 10595.226
732.022  7325.231   876.784 10689.948
732.154  7206.453   826.750 10559.897
732.287  7234.584   874.084 10608.529
732.420  7112.669   804.014 10480.178
732.552  7143.647   871.797 10520.323
732.685  6990.818   789.130 10404.296
732.817  7043.847   878.050 10473.831
732.950  6937.165   814.607 10385.370
733.082  7031.843   910.057 10489.576
733.215  6845.927   800.867 10345.608
733.347  6839.919   859.574 10362.267
733.480  6743.940   802.924 10285.506
733.612  6814.769   897.157 10350.648
733.745  6651.356   776.480 10194.947
733.878  6766.551   891.154 10279.680
734.010  6638.049   789.960 10119.345
734.143  6761.507   903.387 10249.877
734.275  6613.742   832.877 10120.396
734.407  6685.117   906.074 10199.248
734.540  6560.525   798.584 10074.174
734.672  6649.596   880.927 10130.136
734.805  6560.971   817.347  9990.012
734.937  6674.156   906.580 10110.494
735.070  6523.457   775.710  9921.249
735.202  6654.359   911.507 10050.922
735.335  6564.157   824.217  9930.771
735.467  6621.808   872.440  9955.283
735.599  6562.830   795.780  9832.651
735.732  6707.094   900.444  9912.980
735.864  6617.163   793.997  9776.896
735.997  6777.484   898.247  9855.525
736.129  6658.029   768.664  9690.524
736.261  6793.697   895.260  9780.340
736.394  6672.788   780.274  9606.349
736.526  6843.560   866.150  9757.987
736.658  6743.964   745.807  9578.776
736.791  6897.192   849.724  9678.705
736.923  6886.851   802.924  9592.591
737.055  6968.642   841.340  9615.706
737.188  6888.570   767.764  9491.582
737.320  7002.854   846.347  9581.291
737.452  6923.293   754.697  9435.286
737.585  7073.238   857.757  9522.846
737.717  6990.339   759.827  9363.551
737.849  7121.877   842.484  9424.390
737.982  7035.382   733.037  9272.392
738.114  7154.230   828.154  9348.331
738.246  7105.491   764.177  9252.687
738.378  7225.156   876.517  9330.099
738.511  7042.764   726.760  9158.711
738.643  7132.619   811.280  9244.413
738.775  7027.684   740.904  9150.912
738.907  7060.298   812.127  9189.968
739.039  6946.367   746.000  9061.146
739.172  6993.274   804.484  9077.948
739.304  6874.899   732.367  8976.984
739.436  6911.161   801.734  9031.833
739.568  6773.739   717.047  8891.575
739.701  6811.770   812.524  8953.131
739.833  6597.385   701.140  8756.533
739.965  6628.653   803.420  8869.409
740.097  6439.841   710.460  8701.345
740.229  6483.303   791.497  8787.076
740.361  6303.971   714.404  8656.745
740.493  6308.175   797.614  8742.438
740.626  6123.793   683.980  8640.270
740.758  6143.755   810.600  8733.969
740.890  5868.650   679.227  8547.188
741.022  5885.951   766.427  8652.243
741.154  5737.696   717.847  8544.035
741.286  5755.271   814.880  8649.661
741.418  5554.652   729.660  8527.470
741.550  5525.920   801.637  8612.519
741.682  5330.762   699.727  8479.481
741.815  5319.576   795.134  8548.727
741.947  5127.871   723.014  8451.292
742.079  5125.942   809.347  8534.131
742.211  4920.654   731.154  8436.287
742.343  4855.135   783.274  8482.206
742.475  4665.780   727.030  8363.614
742.607  4638.375   794.017  8468.210
742.739  4381.196   706.780  8312.025
742.871  4375.208   776.760  8400.728
743.003  4225.686   719.270  8312.684
743.135  4251.274   815.230  8401.089
743.267  4054.635   705.070  8251.864
743.399  4100.267   813.954  8340.870
743.531  3901.671   712.857  8200.952
743.663  3941.586   803.857  8303.552
743.795  3771.051   700.700  8172.000
743.927  3824.302   794.467  8247.159
744.059  3687.940   706.287  8155.582
744.191  3712.295   781.154  8212.304
744.323  3587.363   706.154  8107.839
744.455  3618.781   764.544  8136.598
744.587  3504.076   692.360  8071.630
744.718  3565.251   769.307  8131.563
744.850  3475.786   679.570  8005.015
744.982  3545.217   731.654  8055.054
745.114  3492.328   668.854  7971.439
745.246  3657.343   791.214  8106.555
745.378  3543.878   638.164  7910.273
745.510  3742.729   775.497  8047.763
745.642  3706.384   702.674  7932.801
745.774  3831.699   778.084  8022.384
745.905  3777.170   677.714  7870.779
746.037  3921.972   743.684  7942.805
746.169  3908.583   669.044  7813.127
746.301  4046.938   742.477  7886.486
746.433  4021.909   650.747  7787.305
746.565  4210.210   756.420  7886.271
746.696  4239.025   679.920  7776.796
746.828  4432.960   763.570  7848.875
746.960  4428.878   681.750  7726.960
747.092  4618.790   729.854  7794.029
747.224  4667.788   670.934  7668.748
747.355  4878.603   759.664  7753.201
747.487  4899.364   674.434  7623.939
747.619  5148.579   765.154  7767.658
747.751  5123.657   652.560  7595.541
747.882  5373.988   752.320  7716.689
748.014  5398.673   656.027  7584.958
748.146  5644.921   758.730  7685.871
748.278  5644.772   679.670  7568.253
748.409  5832.074   752.064  7631.238
748.541  5846.688   691.614  7518.190
748.673  6018.923   758.207  7581.136
748.804  6038.305   660.330  7467.778
748.936  6308.359   793.010  7612.361
749.068  6280.971   683.560  7469.723
749.199  6477.496   774.610  7538.809
749.331  6487.621   704.710  7442.704
749.463  6716.672   811.770  7588.616
749.594  6665.333   717.177  7446.905
749.726  6802.798   774.884  7512.234
749.858  6762.556   716.664  7407.383
749.989  6894.921   811.274  7489.535
750.121  6805.552   693.064  7338.124
750.253  6960.750   807.140  7474.453
750.384  6889.882   735.674  7343.385
750.516  6992.227   797.380  7393.688
750.647  6896.225   706.050  7258.753
750.779  7041.169   794.474  7369.945
750.911  6983.561   730.227  7292.677
751.042  7069.172   812.610  7353.616
751.174  7008.547   756.024  7272.925
751.305  7095.325   811.724  7363.371
751.437  6946.187   750.890  7236.926
751.568  6961.131   776.990  7271.532
751.700  6836.779   722.867  7174.757
751.832  6909.087   810.997  7250.537
751.963  6764.259   723.194  7142.142
752.095  6864.750   812.140  7252.667
752.226  6671.749   711.754  7095.763
752.358  6699.376   789.057  7177.849
752.489  6588.608   726.227  7104.468
752.621  6595.163   794.340  7161.497
752.752  6449.591   714.820  7047.916
752.884  6466.529   803.484  7099.528
753.015  6311.463   719.280  6975.943
753.146  6377.318   813.524  7111.246
753.278  6182.006   733.247  6989.274
753.409  6169.988   785.497  7037.737
753.541  6025.096   718.104  6941.169
753.672  6026.777   805.687  7024.604
753.804  5843.365   734.294  6941.563
753.935  5820.827   794.247  6985.899
754.067  5648.352   702.217  6876.131
754.198  5660.466   807.750  6971.513
754.329  5475.571   708.314  6848.339
754.461  5464.089   797.587  6904.331
754.592  5322.267   711.110  6810.113
754.723  5317.429   810.620  6878.799
754.855  5130.823   693.444  6761.915
754.986  5149.888   791.827  6839.417
755.118  4975.600   701.924  6715.489
755.249  5008.664   801.504  6816.345
755.380  4824.306   701.494  6710.040
755.512  4804.517   783.094  6751.049
755.643  4634.199   695.297  6646.631
755.774  4660.520   791.430  6728.213
755.906  4467.768   691.347  6621.123
756.037  4501.596   797.490  6716.415
756.168  4329.694   695.397  6593.113
756.299  4351.096   788.117  6684.882
756.431  4152.851   680.840  6532.135
756.562  4179.679   766.194  6631.090
756.693  4051.120   696.770  6531.896
756.825  4057.201   775.984  6576.961
756.956  3891.513   681.724  6471.733
757.087  3942.768   790.324  6568.026
757.218  3804.532   706.440  6457.885
757.349  3796.107   772.977  6519.693
757.481  3617.078   679.634  6379.176
757.612  3677.183   773.867  6488.111
757.743  3525.435   694.630  6395.890
757.874  3531.583   753.770  6432.019
758.006  3384.394   673.670  6330.961
758.137  3400.699   747.840  6416.890
758.268  3300.024   671.987  6318.073
758.399  3373.165   769.590  6416.345
758.530  3251.130   707.974  6310.934
758.661  3265.745   745.750  6343.009
758.793  3145.463   675.500  6252.191
758.924  3223.337   767.800  6340.284
759.055  3083.169   669.013  6186.536
759.186  3191.444   772.270  6312.552
759.317  3051.318   668.290  6156.694
759.448  3130.023   774.117  6261.713
759.579  2995.871   657.967  6104.378
759.710  3087.306   752.130  6213.380
759.842  2989.684   657.604  6085.186
759.973  3060.992   726.247  6126.128
760.104  2999.177   651.544  6039.230
760.235  3120.701   756.240  6146.896
760.366  3031.673   654.477  5995.648
760.497  3165.241   754.400  6090.641
760.628  3093.552   667.393  5970.479
760.759  3198.317   740.804  6049.315
760.890  3155.825   679.604  5947.271
761.021  3250.760   736.930  5988.969
761.152  3206.045   645.170  5883.765
761.283  3381.189   761.807  5995.884
761.414  3306.111   654.827  5867.666
761.545  3442.809   733.757  5968.729
761.676  3425.934   678.310  5870.994
761.807  3575.752   755.607  5967.540
761.938  3550.603   693.943  5861.772
762.069  3647.635   737.164  5898.561
762.200  3605.463   669.897  5779.513
762.331  3777.364   766.797  5911.822
762.462  3732.966   657.224  5753.961
762.593  3922.747   763.393  5863.616
762.724  3935.622   715.373  5760.079
762.855  4069.610   779.133  5811.597
762.986  4039.948   684.114  5709.060
763.117  4179.290   756.964  5779.035
763.247  4150.841   672.617  5643.921
763.378  4338.472   775.797  5762.693
763.509  4305.647   686.974  5636.922
763.640  4479.749   789.707  5709.641
763.771  4403.896   669.957  5555.459
763.902  4620.055   803.057  5701.475
764.033  4551.270   686.654  5580.958
764.164  4646.961   742.683  5607.917
764.294  4634.209   667.657  5518.322
764.425  4817.164   775.393  5625.578
764.556  4751.872   651.010  5488.840
764.687  4910.623   748.747  5566.372
764.818  4870.718   671.227  5452.691
764.949  5023.559   740.573  5543.110
765.079  4996.277   672.597  5453.585
765.210  5159.009   766.313  5544.511
765.341  5077.233   661.507  5408.023
765.472  5150.435   709.350  5442.115
765.603  5113.330   668.897  5374.424
765.733  5196.591   718.130  5431.673
765.864  5121.236   634.187  5319.062
765.995  5269.091   736.270  5426.504
766.126  5147.335   647.430  5296.273
766.256  5224.157   698.237  5349.146
766.387  5206.525   686.763  5318.248
766.518  5278.456   737.323  5355.010
766.649  5188.114   636.860  5242.652
766.779  5275.126   720.097  5326.268
766.910  5178.587   643.260  5222.020
767.041  5227.172   722.013  5289.869
767.171  5095.763   647.300  5188.375
767.302  5188.818   743.387  5287.470
767.433  5058.696   668.600  5173.949
767.563  5092.448   730.437  5233.218
767.694  4962.269   656.440  5134.137
767.825  4943.604   695.317  5171.736
767.955  4791.592   631.910  5073.428
768.086  4866.383   732.407  5196.517
768.217  4728.261   667.967  5107.346
768.347  4746.533   752.673  5171.405
768.478  4579.924   663.890  5063.350
768.608  4574.936   726.723  5112.789
768.739  4394.307   639.503  4997.888
768.870  4463.082   765.513  5130.477
769.000  4238.973   644.873  4974.792
769.131  4285.031   762.270  5078.985
769.261  4108.080   657.913  4962.940
769.392  4114.401   743.120  5050.036
769.523  3892.259   635.003  4918.768
769.653  3923.930   748.527  5030.957
769.784  3737.775   654.617  4931.936
769.914  3743.510   731.380  4997.771
770.045  3567.198   653.710  4885.890
770.175  3519.506   718.713  4935.176
770.306  3348.441   630.980  4822.848
770.436  3393.815   750.023  4924.414
770.567  3225.990   665.180  4813.752
770.697  3264.655   765.523  4918.301
770.828  3070.927   663.100  4791.260
770.958  3050.485   713.373  4857.126
771.089  2915.916   659.510  4777.258
771.219  2937.821   739.890  4849.507
771.350  2774.815   657.003  4730.586
771.480  2786.597   747.563  4807.025
771.610  2626.838   642.297  4682.234
771.741  2656.343   730.017  4778.252
771.871  2485.718   637.110  4662.758
772.002  2505.073   725.733  4731.287
772.132  2365.067   635.573  4629.609
772.263  2395.685   708.620  4698.685
772.393  2259.634   614.053  4585.207
772.523  2353.898   732.780  4689.709
772.654  2215.296   620.923  4555.668
772.784  2289.748   712.203  4648.074
772.914  2207.406   637.483  4550.886
773.045  2272.931   705.643  4621.255
773.175  2191.872   631.713  4522.701
773.306  2277.613   706.260  4593.436
773.436  2224.355   646.653  4510.318
773.566  2272.613   695.063  4550.544
773.697  2192.444   620.977  4452.633
773.827  2297.029   697.440  4535.795
773.957  2205.271   602.967  4409.034
774.087  2367.732   730.017  4540.686
774.218  2304.263   642.377  4428.655
774.348  2398.235   690.633  4478.744
774.478  2358.280   624.200  4385.486
774.609  2476.184   690.327  4444.375
774.739  2433.712   591.060  4317.851
774.869  2585.587   684.323  4400.293
774.999  2568.158   605.730  4303.685
775.130  2713.636   689.017  4379.864
775.260  2725.978   640.147  4318.673
775.390  2886.283   732.093  4401.329
775.520  2838.531   625.843  4275.308
775.651  2927.822   664.117  4296.326
775.781  2901.170   598.290  4215.445
775.911  3057.758   696.747  4323.511
776.041  2995.310   578.057  4185.073
776.171  3181.775   701.270  4295.719
776.302  3111.033   594.177  4155.054
776.432  3269.198   692.083  4263.310
776.562  3229.535   609.090  4154.512
776.692  3367.694   675.120  4222.348
776.822  3347.592   593.737  4129.303
776.952  3476.643   658.287  4186.142
777.082  3454.338   596.697  4093.698
777.213  3602.056   676.713  4173.350
777.343  3576.307   607.243  4069.875
777.473  3718.422   692.390  4168.244
777.603  3644.474   605.400  4040.393
777.733  3757.332   671.843  4116.122
777.863  3726.733   626.897  4054.181
777.993  3785.158   663.357  4081.073
778.123  3722.786   587.083  3980.656
778.253  3847.694   686.523  4083.774
778.383  3759.245   585.527  3962.303
778.513  3878.477   672.450  4047.942
778.643  3808.628   603.250  3951.101
778.773  3908.176   686.397  4028.630
778.904  3829.191   603.147  3933.995
779.034  3939.016   678.080  4022.238
779.164  3812.401   592.403  3888.683
779.294  3912.835   661.553  3972.119
779.424  3818.830   570.207  3857.444
779.554  3897.985   665.210  3935.253
779.684  3809.646   591.513  3848.262
779.814  3882.268   674.910  3918.968
779.944  3796.852   610.410  3849.890
780.073  3827.954   667.110  3877.322
780.203  3734.049   591.763  3794.018
780.333  3759.963   649.927  3852.973
780.463  3633.185   566.427  3750.286
780.593  3714.740   684.993  3857.011
780.723  3570.454   561.580  3722.630
780.853  3649.609   678.130  3814.876
780.983  3538.047   602.233  3729.638
781.113  3566.535   653.967  3779.120
781.243  3463.270   593.170  3700.739
781.373  3518.541   653.907  3764.278
781.503  3371.879   562.313  3641.134
781.633  3449.798   667.350  3747.556
781.762  3277.122   548.623  3600.258
781.892  3357.790   638.597  3696.644
782.022  3275.862   589.467  3619.509
782.152  3313.503   662.507  3691.295
782.282  3195.528   601.647  3606.934
782.412  3215.886   650.007  3661.506
782.541  3079.281   564.260  3553.468
782.671  3173.002   685.003  3668.823
782.801  3005.014   559.260  3526.279
782.931  3068.555   645.630  3606.311
783.061  2987.476   594.907  3543.790
783.190  3046.408   674.497  3614.186
783.320  2920.583   591.270  3517.095
783.450  2967.077   656.763  3586.427
783.580  2844.659   582.893  3481.746
783.710  2877.493   640.917  3541.795
783.839  2758.052   559.227  3446.500
783.969  2838.106   683.520  3564.019
784.099  2676.201   563.893  3423.181
784.229  2743.903   654.460  3508.154
784.358  2612.027   568.527  3405.563
784.488  2662.385   650.067  3479.842
784.618  2560.640   591.843  3404.174
784.747  2621.405   674.763  3481.773
784.877  2472.366   567.590  3353.238
785.007  2524.464   639.523  3416.204
785.136  2414.349   559.857  3328.446
785.266  2501.884   662.547  3442.702
785.396  2374.499   563.080  3319.174
785.525  2444.463   664.990  3416.219
785.655  2305.778   553.373  3290.825
785.785  2349.179   618.183  3348.210
785.914  2263.981   565.890  3274.916
786.044  2298.722   631.250  3339.312
786.174  2162.784   522.480  3211.004
786.303  2252.812   627.370  3319.113
786.433  2136.957   544.510  3217.132
786.562  2224.238   648.453  3315.587
786.692  2102.803   550.337  3194.669
786.822  2146.331   609.220  3245.085
786.951  2063.232   535.257  3159.694
787.081  2150.984   637.807  3264.976
787.210  2034.188   539.560  3146.835
787.340  2112.980   628.713  3226.607
787.469  2032.495   563.890  3145.890
787.599  2103.849   637.343  3222.188
787.728  1997.568   549.117  3123.044
787.858  2029.559   601.633  3171.340
787.987  1949.574   552.473  3093.665
788.117  2018.682   615.397  3182.411
788.246  1941.327   571.357  3088.246
788.376  1970.248   605.440  3130.472
788.505  1880.769   539.640  3051.524
788.635  1957.524   614.243  3129.466
788.764  1852.289   532.220  3022.222
788.894  1944.984   631.483  3118.827
789.023  1870.552   578.717  3045.536
789.153  1919.146   631.047  3094.675
789.282  1835.718   553.660  3002.367
789.412  1877.213   596.947  3043.606
789.541  1797.991   533.587  2955.929
789.670  1877.602   619.677  3045.814
789.800  1774.630   531.697  2942.283
789.929  1826.972   585.163  2992.172
790.059  1790.003   541.773  2944.897
790.188  1849.168   602.103  2998.103
790.317  1740.859   509.543  2884.832
790.447  1800.591   575.297  2947.821
790.576  1722.225   503.243  2861.600
790.706  1841.363   619.530  2981.622
790.835  1734.985   521.457  2850.811
790.964  1837.903   608.973  2950.190
791.094  1754.291   524.630  2839.659
791.223  1853.272   610.340  2931.748
791.352  1762.221   522.510  2820.250
791.482  1861.999   604.353  2901.552
791.611  1774.097   508.393  2791.251
791.740  1883.138   598.803  2871.887
791.869  1811.886   519.467  2780.696
791.999  1898.438   597.887  2866.974
792.128  1844.976   542.937  2786.283
792.257  1946.557   622.743  2871.842
792.386  1868.575   538.013  2768.161
792.516  1944.870   608.950  2837.777
792.645  1884.498   547.943  2760.109
792.774  1973.203   625.243  2839.604
792.903  1881.591   518.417  2718.907
793.033  1994.909   626.400  2825.125
793.162  1893.994   524.153  2707.481
793.291  1982.922   604.530  2780.240
793.420  1902.233   512.053  2681.809
793.549  2023.295   623.827  2787.798
793.679  1953.873   538.173  2679.047
793.808  2049.444   603.463  2741.929
793.937  1952.696   505.707  2624.211
794.066  2034.584   577.743  2699.273
794.195  1964.735   503.197  2608.392
794.325  2101.747   635.497  2739.895
794.454  2018.445   535.760  2632.374
794.583  2084.059   595.107  2686.742
794.712  2022.684   527.027  2606.718
794.841  2116.239   608.320  2681.420
794.970  2032.470   512.313  2569.382
795.099  2144.332   607.663  2660.881
795.228  2078.433   539.553  2585.690
795.357  2154.471   614.333  2652.012
795.487  2105.366   552.553  2582.588
795.616  2206.454   635.657  2656.187
795.745  2085.176   517.973  2526.936
795.874  2180.980   603.103  2610.292
796.003  2127.735   535.597  2534.907
796.132  2225.243   614.527  2603.566
796.261  2117.724   511.780  2488.698
796.390  2214.276   601.747  2577.494
796.519  2148.567   539.390  2498.979
796.648  2235.742   606.337  2566.868
796.777  2162.840   539.800  2485.144
796.906  2248.338   614.510  2557.266
797.035  2157.366   523.567  2456.392
797.164  2223.108   594.017  2522.087
797.293  2125.772   496.590  2416.639
797.422  2250.164   615.077  2527.145
797.551  2168.639   532.117  2439.554
797.680  2260.097   619.140  2511.979
797.809  2189.588   553.380  2436.735
797.938  2243.979   604.610  2486.307
798.067  2162.081   535.700  2411.709
798.195  2225.729   601.227  2478.325
798.324  2136.230   522.243  2377.064
798.453  2243.445   632.930  2487.169
798.582  2129.497   521.847  2364.118
798.711  2215.141   619.703  2452.841
798.840  2095.050   511.473  2345.260
798.969  2176.844   601.627  2421.545
799.098  2074.509   505.477  2321.744
799.227  2175.254   610.217  2414.646
799.356  2086.819   532.757  2334.035
799.484  2181.107   642.030  2434.827
799.613  2033.115   506.840  2288.663
799.742  2133.609   609.333  2390.395
799.871  2020.651   522.037  2291.847
800.000  2109.869   613.110  2376.350
800.128  2040.024   552.907  2304.188
800.257  2073.242   602.143  2355.451
800.386  1998.717   553.207  2290.073
800.515  2029.945   594.130  2332.049
800.644  1945.886   523.550  2250.261
800.772  2036.764   633.373  2351.486
800.901  1911.196   529.667  2236.259
801.030  1998.154   632.267  2336.968
801.159  1889.945   548.920  2237.036
801.287  1927.840   601.523  2286.049
801.416  1851.365   542.833  2222.478
801.545  1913.576   610.200  2289.916
801.674  1793.377   515.030  2176.839
801.802  1863.442   607.787  2269.744
801.931  1757.004   516.533  2170.917
802.060  1847.248   613.730  2269.162
802.188  1756.240   545.037  2187.841
802.317  1803.424   603.193  2243.530
802.446  1744.356   556.370  2188.552
802.575  1778.674   600.803  2228.611
802.703  1700.242   533.493  2157.967
802.832  1765.447   623.617  2236.649
802.960  1657.675   524.760  2132.238
803.089  1742.286   625.620  2229.630
803.218  1636.298   537.883  2131.725
803.346  1680.044   601.777  2190.382
803.475  1593.321   534.867  2114.592
803.604  1644.364   599.240  2175.396
803.732  1546.454   508.803  2075.465
803.861  1668.878   637.990  2197.042
803.989  1543.631   519.153  2069.646
804.118  1606.668   587.723  2132.612
804.247  1537.194   526.473  2060.545
804.375  1633.361   622.273  2160.642
804.504  1520.701   532.967  2055.852
804.632  1578.401   595.667  2121.555
804.761  1483.304   511.887  2033.429
804.889  1566.054   602.593  2121.912
805.018  1460.754   508.743  2014.865
805.146  1561.751   605.713  2107.782
805.275  1447.944   509.000  1998.872
805.403  1542.418   614.020  2099.539
805.532  1462.914   545.700  2020.592
805.660  1533.668   632.013  2101.205
805.789  1415.104   532.117  1988.315
805.917  1499.908   619.847  2077.912
806.046  1399.581   525.707  1977.699
806.174  1485.741   602.650  2055.155
806.303  1403.968   521.527  1967.229
806.431  1485.814   611.303  2049.845
806.560  1412.691   554.907  1978.125
806.688  1443.691   593.617  2015.485
806.816  1378.234   526.907  1948.985
806.945  1449.934   594.200  2015.102
807.073  1347.531   504.163  1915.865
807.202  1408.231   578.000  1987.005
807.330  1330.248   511.137  1909.415
807.458  1428.468   596.007  1994.292
807.587  1313.391   482.287  1886.515
807.715  1391.428   563.240  1961.162
807.843  1326.714   505.983  1892.245
807.972  1372.774   563.607  1945.149
808.100  1294.791   491.167  1870.369
808.228  1389.531   580.177  1964.882
808.357  1304.478   499.327  1871.912
808.485  1373.631   572.073  1937.249
808.613  1262.594   469.690  1828.639
808.742  1378.041   580.973  1938.195
808.870  1273.361   486.760  1835.495
808.998  1367.531   574.227  1921.629
809.127  1298.101   504.940  1843.505
809.255  1378.814   575.230  1922.749
809.383  1290.771   496.583  1838.925
809.511  1348.118   562.183  1892.492
809.640  1263.488   479.843  1793.622
809.768  1365.244   580.973  1889.065
809.896  1266.974   492.427  1792.995
810.024  1342.104   573.313  1870.722
810.153  1270.581   502.570  1788.802
810.281  1377.244   602.617  1891.335
810.409  1271.514   497.840  1777.299
810.537  1340.921   565.590  1842.862
810.665  1248.074   488.123  1752.095
810.794  1321.164   554.640  1820.789
810.922  1243.378   469.727  1733.109
811.050  1355.491   572.387  1824.565
811.178  1282.711   503.960  1750.285
811.306  1337.268   564.300  1806.649
811.434  1282.178   503.327  1740.259
811.563  1344.238   560.640  1799.825
811.691  1252.784   470.420  1697.055
811.819  1348.078   556.770  1784.859
811.947  1305.448   509.913  1730.752
812.075  1377.701   587.383  1796.209
812.203  1309.168   508.557  1708.899
812.331  1375.678   563.497  1773.742
812.459  1313.428   494.367  1689.422
812.587  1386.001   555.050  1754.855
812.716  1312.084   488.843  1668.579
812.844  1377.958   549.037  1741.189
812.972  1272.104   448.703  1632.959
813.100  1390.898   567.490  1743.789
813.228  1312.098   491.753  1661.985
813.356  1421.088   585.020  1758.709
813.484  1346.531   508.293  1667.669
813.612  1387.771   540.393  1699.105
813.740  1323.824   477.817  1628.275
813.868  1435.004   576.737  1727.799
813.996  1354.534   497.553  1635.485
814.124  1414.998   542.853  1683.942
814.252  1334.354   465.900  1596.322
814.380  1437.534   568.033  1699.602
814.508  1365.971   500.260  1618.549
814.636  1430.001   560.623  1681.462
814.764  1349.671   469.887  1587.322
814.892  1448.391   557.883  1673.029
815.019  1369.618   473.387  1577.889
815.147  1477.911   570.357  1679.199
815.275  1356.614   440.923  1541.355
815.403  1509.814   574.953  1677.879
815.531  1411.994   465.093  1556.345
815.659  1501.411   552.110  1641.449
815.787  1432.438   473.093  1555.319
815.915  1546.448   576.120  1658.232
816.043  1448.674   470.417  1547.739
816.171  1517.224   528.410  1598.172
816.298  1448.174   448.010  1511.309
816.426  1533.768   523.787  1586.095
816.554  1474.964   454.523  1513.215
816.682  1564.568   527.370  1585.612
816.810  1513.524   477.800  1526.655
816.938  1580.314   535.337  1581.702
817.065  1521.638   475.843  1518.665
817.193  1574.088   519.460  1561.039
817.321  1518.394   449.100  1484.155
817.449  1637.308   555.323  1590.635
817.577  1544.531   458.367  1481.949
817.704  1670.221   580.063  1601.702
817.832  1586.264   488.123  1507.882
817.960  1663.954   550.270  1568.112
818.088  1591.518   479.507  1488.102
818.215  1658.884   530.840  1540.045
818.343  1600.431   468.730  1471.662
818.471  1680.638   541.613  1540.882
818.599  1605.191   463.753  1457.615
818.726  1694.854   557.067  1542.642
818.854  1601.404   464.513  1449.745
818.982  1687.941   546.963  1527.155
819.109  1628.614   486.930  1456.899
819.237  1659.428   518.683  1491.752
819.365  1591.241   464.320  1431.379
819.492  1692.454   551.027  1518.552
819.620  1597.371   471.160  1424.675
819.748  1666.058   545.367  1496.729
819.875  1566.998   444.100  1398.742
820.003  1670.624   551.087  1506.472
820.131  1595.808   487.190  1434.529
820.258  1639.211   540.340  1486.572
820.386  1551.238   455.733  1398.545
820.513  1629.201   536.437  1474.902
820.641  1532.878   465.360  1395.109
820.769  1609.284   550.797  1486.725
820.896  1475.311   441.657  1367.215
821.024  1565.781   545.730  1470.932
821.151  1446.331   438.340  1360.052
821.279  1520.441   508.267  1427.415
821.406  1464.068   476.933  1382.012
821.534  1469.444   493.097  1404.542
821.661  1403.628   449.313  1355.139
821.789  1457.478   515.857  1421.275
821.917  1348.988   430.570  1328.145
822.044  1443.711   539.110  1436.735
822.172  1318.541   434.590  1325.952
822.299  1425.094   556.110  1448.442
822.427  1291.418   442.363  1330.905
822.554  1361.331   533.580  1417.999
822.682  1227.018   425.293  1302.732
822.809  1286.188   498.833  1382.912
822.936  1173.171   412.930  1285.375
823.064  1255.221   502.507  1370.185
823.191  1178.028   442.427  1304.635
823.319  1242.034   518.527  1386.609
823.446  1154.914   450.533  1311.005
823.574  1222.701   526.737  1389.122
823.701  1115.531   437.020  1291.949
823.828  1177.484   506.097  1357.119
823.956  1079.134   420.450  1264.435
824.083  1162.618   514.590  1360.289
824.211  1043.441   406.637  1243.369
824.338  1122.848   500.103  1341.445
824.465  1024.514   418.987  1253.845
824.593  1077.724   482.290  1317.705
824.720   998.231   410.833  1238.392
824.847  1067.871   489.270  1313.245
824.975   971.738   409.993  1224.979
825.102  1044.141   492.013  1310.445
825.229   919.308   379.247  1192.812
825.357  1013.011   473.557  1287.749
825.484   960.371   430.757  1239.472
825.611  1070.424   538.263  1350.349
825.739   956.574   429.830  1231.445
825.866  1017.651   489.607  1295.535
825.993   936.334   421.280  1212.492
826.120  1023.238   509.470  1304.609
826.248   914.608   401.893  1194.269
826.375  1017.754   501.917  1294.069
826.502   926.118   413.907  1199.069
826.629  1028.018   519.150  1300.255
826.757   923.474   407.913  1186.415
826.884   996.941   478.450  1258.255
827.011   908.138   400.153  1171.219
827.138   950.734   446.447  1219.972
827.266   879.284   381.497  1146.692
827.393  1000.518   495.513  1263.045
827.520   872.224   366.370  1127.129
827.647  1030.791   517.863  1283.069
827.774   923.388   408.257  1162.462
827.901   981.264   460.900  1214.955
828.029   934.671   408.123  1157.795
828.156  1014.274   468.110  1217.552
828.283   953.331   398.483  1140.142
828.410  1049.644   479.583  1223.205
828.537   997.191   415.273  1153.119
828.664  1065.428   466.957  1206.052
828.791  1008.971   399.137  1130.072
828.918  1125.591   504.047  1237.352
829.045  1073.971   436.093  1166.935
829.173  1121.954   470.777  1200.445
829.300  1076.201   413.663  1133.935
829.427  1139.938   466.977  1188.129
829.554  1115.041   427.797  1149.889
829.681  1209.838   513.557  1235.775
829.808  1085.121   385.830  1097.712
829.935  1190.268   479.180  1189.579
830.062  1135.858   417.380  1126.659
830.189  1249.148   514.620  1223.142
830.316  1177.224   430.877  1131.025
830.443  1249.514   492.567  1192.012
830.570  1161.271   397.303  1097.285
830.697  1281.794   508.023  1204.435
830.824  1188.161   406.040  1098.109
830.951  1298.894   503.487  1193.845
831.078  1233.228   426.083  1115.395
831.205  1313.788   497.953  1178.799
831.332  1237.458   416.923  1098.782
831.459  1348.811   514.887  1192.259
831.586  1251.701   404.513  1080.595
831.713  1377.668   516.927  1193.035
831.839  1278.824   410.410  1081.352
831.966  1369.344   500.753  1176.275
832.093  1305.971   434.990  1101.219
832.220  1393.068   512.350  1182.249
832.347  1310.748   435.440  1096.752
832.474  1390.371   499.860  1162.535
832.601  1332.751   443.000  1098.039
832.728  1404.528   502.037  1157.199
832.855  1331.614   431.617  1086.019
832.981  1417.721   514.483  1168.385
833.108  1351.624   441.977  1088.695
833.235  1430.064   513.147  1159.055
833.362  1348.378   427.557  1069.065
833.489  1422.604   488.587  1130.752
833.616  1373.754   440.067  1072.792
833.742  1475.104   527.570  1165.575
833.869  1426.494   470.127  1108.882
833.996  1506.241   540.813  1174.799
834.123  1405.844   434.877  1065.492
834.249  1525.611   547.423  1177.152
834.376  1450.541   463.193  1090.339
834.503  1522.291   538.943  1162.735
834.630  1427.814   456.323  1075.862
834.756  1471.058   503.347  1119.615
834.883  1441.324   474.877  1088.332
835.010  1517.778   556.773  1170.452
835.137  1410.064   450.740  1059.152
835.263  1470.934   518.590  1129.712
835.390  1380.211   432.317  1036.512
835.517  1477.774   534.123  1140.462
835.643  1401.124   451.583  1054.525
835.770  1482.251   530.443  1132.815
835.897  1365.318   415.160  1013.125
836.023  1477.071   529.357  1127.152
836.150  1408.978   460.140  1053.482
836.277  1506.961   561.430  1151.239
836.403  1401.018   452.180  1040.179
836.530  1476.941   532.213  1117.799
836.657  1422.591   473.880  1059.665
836.783  1483.881   537.880  1125.169
836.910  1402.768   465.820  1047.192
837.036  1431.598   503.817  1085.239
837.163  1352.308   439.167  1015.902
837.290  1449.388   540.533  1115.832
837.416  1337.838   440.187  1017.512
837.543  1432.904   541.413  1117.645
837.669  1352.174   466.460  1037.959
837.796  1411.904   535.450  1106.625
837.922  1330.648   467.567  1029.445
838.049  1383.858   521.733  1088.689
838.176  1318.854   466.217  1025.982
838.302  1367.731   519.123  1077.065
838.429  1286.558   438.387   992.095
838.555  1378.848   530.260  1087.012
838.682  1280.044   441.977   995.159
838.808  1359.161   528.527  1085.022
838.935  1261.908   436.637   990.282
839.061  1354.451   548.670  1098.209
839.188  1258.981   462.443  1007.135
839.314  1317.598   524.220  1069.045
839.440  1245.211   463.663  1005.362
839.567  1306.098   540.460  1083.472
839.693  1230.574   477.673  1016.135
839.820  1278.488   530.957  1074.489
839.946  1194.954   468.347  1003.769
840.073  1221.634   508.127  1041.855
840.199  1145.261   440.677   971.662
840.325  1221.864   525.027  1055.452
840.452  1122.094   435.013   962.822
840.578  1220.808   542.230  1068.862
840.705  1136.058   463.773   986.189
840.831  1196.071   533.813  1057.119
840.957  1076.244   432.567   951.659
841.084  1139.484   494.350  1013.449
841.210  1105.301   465.080   983.709
841.336  1126.161   498.757  1011.552
841.463  1059.194   434.800   947.595
841.589  1108.198   494.760  1007.229
841.715  1023.028   422.410   930.665
841.842  1137.668   540.713  1050.425
841.968  1029.848   447.790   950.629
842.094  1082.898   508.697  1014.612
842.220  1011.694   449.820   949.775
842.347  1069.071   513.817  1017.439
842.473   984.364   437.933   942.639
842.599  1056.204   509.000  1012.675
842.725   961.298   422.167   917.372
842.852  1034.348   505.347   998.122
842.978   947.508   415.587   908.409
843.104  1027.984   495.233   988.885
843.230   994.281   470.000   955.489
843.357  1031.801   509.407   999.669
843.483   981.981   459.393   945.745
843.609  1013.031   486.053   973.392
843.735   956.471   432.523   911.299
843.861  1061.841   532.050  1018.889
843.987   952.664   421.793   898.372
844.114  1072.498   539.910  1020.715
844.240   956.991   436.230   913.569
844.366  1020.511   501.060   978.595
844.492   966.008   450.340   922.815
844.618  1023.968   508.540   978.872
844.744   929.104   417.563   885.349
844.870  1020.251   502.260   972.002
844.997   915.008   400.707   866.205
845.123  1007.351   492.607   956.239
845.249   933.801   429.183   888.369
845.375  1016.398   504.980   972.102
845.501   941.041   432.770   895.242
845.627  1001.638   493.427   953.425
845.753   901.184   402.440   859.389
845.879   994.508   496.580   954.062
846.005   889.601   393.487   850.002
846.131   983.448   486.800   939.162
846.257   928.784   438.747   890.302
846.383   976.078   486.920   937.319
846.509   907.564   420.883   865.219
846.635   993.248   503.117   951.372
846.761   884.261   403.793   844.509
846.887   972.168   494.960   938.012
847.013   885.418   406.287   847.655
847.139   947.921   472.253   911.445
847.265   877.444   399.703   837.762
847.391   957.571   480.257   916.532
847.517   852.514   381.637   808.815
847.643   948.044   460.967   901.002
847.769   871.708   386.747   819.689
847.895   945.668   459.117   893.092
848.021   901.911   415.383   843.742
848.147   962.178   465.593   891.899
848.273   869.084   372.123   798.985
848.399   960.791   457.997   884.325
848.524   890.961   385.567   807.022
848.650  1012.101   491.143   917.782
848.776   915.278   388.480   808.052
848.902   996.331   468.493   886.575
849.028   944.704   409.467   828.662
849.154  1017.058   472.887   895.872
849.280   939.691   390.503   805.759
849.405  1049.738   490.717   908.725
849.531   946.298   394.000   806.559
849.657  1039.631   475.857   890.749
849.783   951.898   387.963   800.912
849.909  1046.321   475.800   885.759
850.034   963.364   389.050   798.412
850.160  1056.308   475.110   882.565
850.286   986.568   402.257   809.699
850.412  1075.748   485.783   892.142
850.538   965.064   369.957   775.592
850.663  1077.934   472.340   874.799
850.789   994.101   385.330   784.475
850.915  1090.038   475.493   875.279
851.041  1002.364   389.747   783.035
851.166  1109.028   483.033   881.732
851.292  1009.924   379.827   773.025
851.418  1109.798   476.967   871.092
851.543  1021.774   389.790   780.975
851.669  1115.071   475.407   865.429
851.795  1004.758   364.603   752.742
851.920  1145.894   491.187   883.349
852.046  1073.034   426.090   814.105
852.172  1148.501   483.003   871.259
852.297  1063.201   393.700   776.869
852.423  1142.174   473.153   854.892
852.549  1062.234   393.973   776.462
852.674  1174.678   497.947   880.942
852.800  1050.994   377.087   757.865
852.926  1177.678   494.320   874.055
853.051  1097.548   407.083   789.122
853.177  1176.484   477.847   855.965
853.302  1080.958   383.587   755.802
853.428  1190.574   490.777   862.329
853.553  1090.168   386.047   757.155
853.679  1205.228   495.090   866.222
853.805  1127.238   414.140   782.599
853.930  1229.834   511.990   881.085
854.056  1125.308   408.313   773.935
854.181  1213.688   488.220   858.012
854.307  1124.494   406.430   769.932
854.432  1196.068   467.913   836.045
854.558  1149.421   422.570   786.272
854.683  1212.988   486.583   848.915
854.809  1129.931   404.123   763.759
854.934  1180.018   455.467   816.752
855.060  1111.474   387.993   745.875
855.185  1204.154   475.390   834.909
855.311  1170.214   445.077   802.639
855.436  1177.931   445.200   805.035
855.562  1132.241   408.787   763.795
855.687  1195.671   470.220   827.895
855.812  1109.904   387.130   737.882
855.938  1195.391   472.580   823.169
856.063  1099.774   384.387   731.329
856.189  1214.208   496.227   848.029
856.314  1095.431   385.473   731.739
856.439  1198.858   486.463   833.915
856.565  1109.498   403.363   749.759
856.690  1175.248   473.323   819.485
856.816  1067.981   381.463   721.635
856.941  1137.458   448.300   794.042
857.066  1064.194   392.000   733.409
857.192  1147.568   475.427   816.632
857.317  1080.701   415.937   757.182
857.442  1107.134   450.833   793.839
857.568  1037.844   395.850   729.922
857.693  1074.051   438.870   777.935
857.818  1036.974   412.637   748.282
857.943  1081.558   456.753   791.039
858.069  1010.424   398.877   731.029
858.194  1080.478   474.173   807.309
858.319   959.874   363.643   693.235
858.445  1056.558   470.783   801.912
858.570   939.561   360.677   689.035
858.695  1002.964   433.987   765.022
858.820   949.038   396.687   720.729
858.946  1017.818   467.310   792.755
859.071   936.074   399.900   722.659
859.196   983.011   448.950   775.575
859.321   880.464   366.190   686.639
859.446   981.584   471.537   796.895
859.572   876.518   382.947   703.355
859.697   937.614   445.977   771.719
859.822   831.621   358.197   672.119
859.947   900.128   436.777   755.392
860.072   796.624   341.577   659.062
860.197   898.908   456.420   773.352
860.323   779.984   348.637   663.625
860.448   883.984   458.667   773.895
860.573   758.894   350.657   660.805
860.698   802.654   402.317   720.765
860.823   765.188   378.327   689.402
860.948   825.118   445.250   759.415
861.073   697.958   332.950   640.459
861.198   772.054   410.240   718.445
861.323   702.778   354.203   659.635
861.449   778.218   429.690   739.642
861.574   687.108   347.690   656.919
861.699   756.524   428.173   735.222
861.824   684.451   361.900   666.212
861.949   696.268   379.757   689.049
862.074   652.888   340.693   646.885
862.199   713.671   402.110   706.699
862.324   627.968   327.417   626.215
862.449   706.198   407.553   709.495
862.574   636.504   335.420   637.939
862.699   710.804   413.690   715.505
862.824   614.058   321.247   617.779
862.949   702.068   408.470   706.375
863.074   618.991   329.060   623.975
863.199   690.048   400.983   696.555
863.324   636.114   343.157   636.522
863.449   707.758   415.193   709.895
863.574   598.891   309.273   605.155
863.698   689.238   405.887   698.545
863.823   632.231   352.867   644.122
863.948   696.628   416.153   705.839
864.073   621.274   340.340   630.942
864.198   691.841   412.400   701.825
864.323   576.121   302.077   586.789
864.448   692.048   414.443   703.595
864.573   610.221   333.670   616.112
864.698   683.234   407.567   692.839
864.822   591.891   318.773   600.145
864.947   668.174   390.257   674.755
865.072   616.801   344.167   626.969
865.197   687.304   407.553   689.845
865.322   598.554   318.057   597.955
865.447   700.578   416.167   699.985
865.571   637.561   353.693   635.659
865.696   711.691   425.383   707.305
865.821   632.074   340.223   614.545
865.946   700.924   408.577   686.485
866.071   618.801   327.000   601.849
866.195   732.441   433.060   707.909
866.320   644.158   340.277   617.855
866.445   712.464   413.323   686.192
866.570   635.661   331.800   603.949
866.694   742.251   438.187   710.092
866.819   649.518   342.307   614.652
866.944   733.638   414.727   690.085
867.068   664.268   351.410   620.725
867.193   761.321   438.963   709.949
867.318   657.981   337.723   604.882
867.443   744.141   417.943   687.672
867.567   672.271   343.730   613.599
867.692   736.868   401.153   669.792
867.817   660.128   324.620   588.285
867.941   782.048   436.633   701.789
868.066   669.354   324.073   586.009
868.191   781.638   433.813   698.052
868.315   689.898   339.867   605.002
868.440   764.844   407.573   671.999
868.564   695.818   335.570   597.229
868.689   776.278   411.877   675.102
868.814   723.511   358.577   616.905
868.938   800.268   430.757   688.839
869.063   704.021   333.513   591.445
869.187   799.071   424.450   680.912
869.312   747.061   366.987   619.682
869.436   799.674   416.317   672.299
869.561   745.888   359.737   612.662
869.686   787.231   397.160   651.625
869.810   720.304   330.223   581.262
869.935   828.598   435.163   688.132
870.059   713.831   320.497   568.932
870.184   835.848   433.720   686.729
870.308   742.024   343.767   594.639
870.433   821.808   417.783   666.852
870.557   762.654   360.837   607.762
870.682   838.731   431.483   680.165
870.806   734.081   328.913   580.219
870.931   818.478   409.313   656.962
871.055   754.724   353.467   600.489
871.179   833.324   430.220   677.525
871.304   737.274   333.023   575.779
871.428   845.888   437.150   682.282
871.553   751.361   341.703   583.895
871.677   829.751   417.753   658.605
871.802   758.504   351.003   593.092
871.926   832.881   415.760   659.535
872.050   757.834   347.830   584.972
872.175   842.274   423.637   664.395
872.299   778.284   359.007   599.992
872.423   851.544   425.040   667.785
872.548   786.671   355.120   594.939
872.672   876.431   439.640   680.559
872.797   789.468   353.817   588.762
872.921   881.091   440.203   675.495
873.045   769.381   328.897   561.015
873.169   872.098   425.207   660.175
873.294   801.794   352.510   584.042
873.418   865.968   414.077   649.522
873.542   816.221   364.050   593.182
873.667   872.051   415.250   647.869
873.791   796.161   346.163   575.099
873.915   878.744   420.333   650.102
874.039   806.424   347.677   576.292
874.164   931.504   468.290   697.869
874.288   816.751   357.443   587.219
874.412   934.591   474.157   701.449
874.536   819.431   362.707   589.292
874.661   914.548   454.603   680.022
874.785   826.998   365.657   590.809
874.909   871.551   416.873   639.272
875.033   801.964   349.073   571.659
875.157   919.631   462.943   689.942
875.282   827.251   368.830   589.145
875.406   915.101   454.407   678.582
875.530   816.791   358.623   579.852
875.654   894.081   436.083   654.799
875.778   856.791   395.850   616.405
875.902   919.118   457.690   675.149
876.027   860.798   398.160   617.789
876.151   906.974   440.227   660.669
876.275   847.578   383.723   598.715
876.399   895.384   434.880   651.769
876.523   826.508   366.240   581.519
876.647   924.051   461.463   679.789
876.771   832.368   372.753   588.252
876.895   890.551   434.300   651.679
877.019   845.554   391.963   602.599
877.143   891.568   440.280   656.165
877.267   822.634   378.343   587.232
877.391   921.278   470.353   684.385
877.516   804.141   359.360   569.122
877.640   889.948   446.853   657.635
877.764   829.438   386.963   598.852
877.888   872.588   426.440   637.542
878.012   789.554   353.317   562.229
878.136   880.871   440.800   650.039
878.260   800.181   364.120   569.872
878.384   914.011   476.913   682.089
878.508   784.604   351.937   555.725
878.631   867.301   432.200   639.145
878.755   840.024   410.510   618.165
878.879   879.298   452.097   658.565
879.003   797.801   374.827   575.729
879.127   878.588   459.713   664.809
879.251   786.314   371.347   573.139
879.375   847.401   432.847   636.102
879.499   806.404   397.727   597.452
879.623   858.278   453.787   651.775
879.747   779.618   382.293   580.032
879.871   882.608   482.413   682.295
879.995   781.178   387.430   585.595
880.118   854.644   465.383   665.055
880.242   773.381   388.007   584.259
880.366   835.874   457.210   653.652
880.490   750.961   377.177   571.855
880.614   839.021   464.673   660.902
880.738   724.461   357.057   549.989
880.861   844.934   474.863   671.342
880.985   759.594   392.387   586.279
881.109   832.664   466.730   661.049
881.233   752.001   391.610   583.149
881.357   826.488   469.453   663.735
881.480   758.961   403.837   598.192
881.604   826.634   479.280   668.369
881.728   726.334   384.920   575.472
881.852   807.204   474.743   664.199
881.975   716.598   391.683   575.155
882.099   807.154   481.233   671.002
882.223   734.184   411.073   599.779
882.347   782.084   464.713   652.665
882.470   701.598   394.080   580.065
882.594   772.031   469.920   658.459
882.718   671.221   377.257   564.735
882.841   765.768   473.603   661.685
882.965   684.834   391.920   579.112
883.089   777.304   492.887   677.132
883.212   678.558   397.867   582.629
883.336   750.721   466.680   652.445
883.460   676.848   400.160   581.552
883.583   751.901   475.020   655.589
883.707   670.608   397.200   576.952
883.831   736.698   462.500   644.502
883.954   669.581   402.660   582.895
884.078   765.234   494.580   675.052
884.201   658.178   396.120   572.359
884.325   755.308   492.983   672.609
884.449   668.708   408.007   585.945
884.572   730.291   470.500   646.909
884.696   675.371   415.150   592.622
884.819   719.181   455.667   634.752
884.943   660.254   397.350   570.095
885.066   765.614   499.943   675.079
885.190   697.151   426.847   602.725
885.313   757.028   486.833   661.155
885.437   679.618   416.243   587.665
885.560   756.798   489.050   662.742
885.684   698.964   430.893   604.809
885.807   758.404   483.403   657.705
885.931   673.464   400.130   569.552
886.054   779.194   500.693   669.889
886.178   684.744   406.900   575.949
886.301   764.304   481.933   651.642
886.425   682.141   400.987   567.602
886.548   767.738   483.027   653.759
886.672   715.454   434.233   602.509
886.795   755.094   474.760   643.775
886.918   689.274   407.440   573.845
887.042   763.368   477.130   646.509
887.165   669.508   385.093   551.655
887.289   798.481   507.427   674.212
887.412   716.138   425.253   591.289
887.535   810.494   521.380   686.382
887.659   718.464   429.417   592.189
887.782   770.158   472.127   639.192
887.905   704.998   410.167   577.062
888.029   781.888   485.563   648.862
888.152   700.171   401.780   565.809
888.275   777.868   475.830   638.405
888.399   708.644   409.033   570.449
888.522   779.314   474.013   634.802
888.645   734.141   428.800   589.752
888.769   794.931   484.207   645.622
888.892   717.401   410.483   571.332
889.015   786.341   473.537   632.505
889.139   719.708   407.027   565.522
889.262   796.988   476.767   634.112
889.385   695.304   377.580   536.015
889.508   817.714   504.007   660.775
889.632   724.111   402.053   560.395
889.755   811.688   485.197   644.315
889.878   707.734   384.320   537.989
890.001   781.108   451.307   607.375
890.124   730.131   401.457   554.802
890.248   775.134   441.707   594.822
890.371   705.091   368.157   517.385
890.494   813.681   469.173   624.932
890.617   710.584   364.060   517.962
890.740   785.684   440.513   592.569
890.863   734.554   384.820   536.265
890.987   785.718   429.890   582.219
891.110   738.831   379.017   530.989
891.233   817.164   454.907   609.349
891.356   734.941   368.910   519.469
891.479   835.441   464.600   616.069
891.602   703.354   332.423   482.212
891.725   807.954   434.423   585.915
891.848   727.564   350.747   499.149
891.971   813.101   432.010   581.009
892.095   743.531   357.870   505.852
892.218   821.388   432.773   581.129
892.341   751.751   359.527   507.412
892.464   830.678   434.237   581.469
892.587   725.314   329.960   474.462
892.710   838.664   442.573   589.389
892.833   751.124   356.913   501.495
892.956   837.221   435.013   577.422
893.079   733.331   332.003   476.232
893.202   820.478   416.350   562.599
893.325   737.458   327.740   475.835
893.448   826.854   416.223   560.672
893.571   748.288   337.793   479.089
893.694   847.361   430.783   573.232
893.817   741.514   322.157   462.409
893.940   865.864   444.333   587.992
894.063   768.351   348.467   491.005
894.185   851.318   428.017   568.082
894.308   757.971   330.803   468.085
894.431   850.881   422.660   560.789
894.554   739.864   310.940   451.722
894.677   838.688   411.967   548.559
894.800   767.184   342.340   478.992
894.923   877.798   453.600   594.022
895.046   776.064   354.570   490.692
895.169   855.401   430.853   570.859
895.292   794.334   376.847   509.942
895.414   847.194   425.753   562.072
895.537   726.194   307.737   441.782
895.660   840.361   421.827   559.375
895.783   765.094   351.070   486.552
895.906   840.254   428.477   562.545
896.029   772.044   362.340   495.529
896.151   837.958   428.747   563.429
896.274   775.524   367.850   499.792
896.397   822.711   421.823   553.439
896.520   737.034   333.013   461.339
896.642   830.431   422.900   556.285
896.765   730.378   330.530   459.309
896.888   824.471   427.660   558.369
897.011   749.248   353.223   483.235
897.133   813.811   419.180   549.152
897.256   734.728   343.143   471.429
897.379   809.484   418.610   546.029
897.502   735.811   354.700   483.739
897.624   819.281   442.020   571.989
897.747   711.351   339.130   468.849
897.870   783.131   419.760   546.975
897.992   713.058   354.400   484.089
898.115   771.044   413.210   539.789
898.238   708.694   356.290   483.205
898.360   787.154   439.540   567.749
898.483   704.321   359.777   485.215
898.606   789.548   451.007   578.212
898.728   672.371   339.413   467.622
898.851   749.998   421.857   548.859
898.973   684.038   365.607   488.589
899.096   713.088   402.103   525.232
899.219   649.024   341.320   465.852
899.341   748.068   442.043   564.555
899.464   684.914   387.627   509.992
899.586   751.124   452.200   576.172
899.709   666.418   369.883   491.732
899.832   729.288   435.670   559.485
899.954   670.658   379.537   498.902
900.077   729.111   441.240   562.369
900.199   652.661   364.300   485.215
900.322   732.208   448.230   567.289
900.444   638.008   363.433   481.175
900.567   711.881   435.773   553.565
900.689   632.071   360.127   476.722
900.812   706.554   433.727   552.082
900.934   624.031   357.697   474.939
901.057   704.704   438.293   557.362
901.179   606.178   347.293   465.335
901.302   699.828   439.330   560.122
901.424   639.524   382.293   498.502
901.546   720.371   463.147   580.445
901.669   627.791   371.880   486.439
901.791   675.158   421.770   540.465
901.914   612.454   363.257   479.969
902.036   692.124   441.050   554.429
902.158   583.608   334.937   449.369
902.281   681.194   430.680   546.289
902.403   595.131   347.907   461.825
902.526   685.068   437.617   551.689
902.648   590.694   345.097   456.712
902.770   687.614   441.523   555.139
902.893   578.794   335.210   448.119
903.015   650.298   406.067   519.349
903.137   584.058   344.807   455.049
903.260   645.941   409.620   522.199
903.382   549.451   312.990   424.889
903.504   667.741   427.913   539.662
903.627   598.271   361.237   471.182
903.749   668.954   430.320   539.862
903.871   601.044   366.940   477.555
903.993   648.551   413.593   521.345
904.116   572.681   338.693   447.629
904.238   658.074   420.973   530.199
904.360   595.231   361.023   469.539
904.482   671.828   437.137   547.812
904.605   607.724   371.523   480.499
904.727   645.494   407.390   514.465
904.849   570.251   333.967   441.192
904.971   667.048   430.570   537.822
905.094   600.988   367.237   472.859
905.216   661.654   419.840   526.822
905.338   603.234   364.037   469.639
905.460   682.044   439.883   545.422
905.582   623.188   385.707   491.485
905.704   686.778   446.757   551.292
905.826   600.991   362.470   466.112
905.949   704.374   457.990   562.575
906.071   580.481   337.403   439.902
906.193   679.211   431.527   535.495
906.315   584.204   340.970   441.865
906.437   697.358   450.623   553.969
906.559   608.058   361.367   462.335
906.681   677.421   435.437   539.232
906.803   592.021   347.420   449.335
906.925   671.171   427.120   528.412
907.047   601.488   357.103   459.135
907.170   669.468   424.423   526.212
907.292   570.158   323.457   424.929
907.414   680.618   435.333   535.189
907.536   606.884   361.203   460.409
907.658   689.538   441.407   542.659
907.780   594.174   347.920   446.615
907.902   671.044   422.647   523.185
908.024   641.981   389.907   488.259
908.146   686.504   431.607   529.125
908.268   631.901   377.280   473.025
908.390   685.031   431.553   532.342
908.512   605.794   352.273   448.259
908.634   710.081   454.390   553.605
908.755   619.844   365.373   461.845
908.877   700.661   442.517   540.679
908.999   628.904   375.140   472.405
909.121   695.724   434.700   532.695
909.243   672.894   410.740   506.462
909.365   708.171   449.100   545.555
909.487   625.358   367.443   463.122
909.609   705.928   446.433   538.652
909.731   624.748   367.120   462.432
909.853   698.728   435.337   529.672
909.975   638.688   381.070   475.785
910.096   700.204   436.550   533.489
910.218   623.584   361.667   454.452
910.340   687.608   424.877   518.312
910.462   636.051   368.093   463.302
910.584   726.594   459.083   552.905
910.706   639.618   374.573   467.149
910.827   701.058   432.633   524.299
910.949   643.564   373.840   465.929
911.071   727.358   455.273   548.005
911.193   618.124   351.647   442.075
911.314   708.994   438.377   529.269
911.436   629.154   357.213   449.865
911.558   714.734   443.883   532.729
911.680   631.851   358.377   447.175
911.801   713.988   438.180   531.605
911.923   661.414   390.770   480.879
912.045   726.401   450.400   543.125
912.167   660.761   389.023   476.229
912.288   685.741   412.300   501.292
912.410   629.731   357.953   447.052
912.532   714.651   437.020   524.685
912.653   629.981   349.163   437.569
912.775   724.844   443.870   531.039
912.897   640.664   361.257   449.475
913.018   730.741   448.660   534.675
913.140   652.288   370.657   457.802
913.262   712.724   429.890   517.695
913.383   673.464   391.670   476.485
913.505   731.988   448.900   533.952
913.627   632.264   351.530   436.685
913.748   705.874   425.007   512.459
913.870   661.881   380.147   464.985
913.991   748.951   466.850   552.942
914.113   656.404   373.953   456.775
914.234   725.078   443.570   528.415
914.356   653.971   378.453   459.942
914.478   713.534   438.813   523.135
914.599   636.288   363.100   445.959
914.721   735.431   460.663   546.472
914.842   629.081   357.870   442.639
914.964   711.214   440.523   522.982
915.085   648.011   378.853   461.582
915.207   699.038   434.030   513.052
915.328   646.434   383.250   462.365
915.450   717.688   450.830   535.042
915.571   632.141   368.650   448.545
915.693   708.421   441.163   525.715
915.814   608.404   349.707   429.465
915.936   726.641   468.600   549.702
916.057   618.078   366.230   446.292
916.178   714.301   456.870   543.272
916.300   641.814   392.267   472.979
916.421   698.311   445.237   525.302
916.543   654.314   404.540   484.835
916.664   701.288   443.367   527.005
916.786   613.891   367.067   448.052
916.907   701.038   451.790   534.579
917.028   614.021   367.430   442.435
917.150   715.398   463.133   544.082
917.271   609.631   365.043   442.432
917.392   703.321   455.510   534.365
917.514   637.201   395.357   474.259
917.635   688.294   445.790   524.672
917.756   616.894   377.583   453.919
917.878   703.678   457.847   533.929
917.999   590.434   350.593   429.432
918.120   687.524   451.977   529.922
918.242   586.738   352.480   430.155
918.363   688.541   459.407   537.572
918.484   627.591   399.030   475.552
918.605   663.308   433.783   508.419
918.727   604.631   376.453   452.085
918.848   668.484   444.910   520.875
918.969   566.208   344.080   418.059
919.090   690.901   470.413   548.432
919.212   600.254   382.523   455.852
919.333   671.868   452.080   527.929
919.454   594.274   381.430   454.092
919.575   662.471   449.557   521.972
919.696   578.594   367.417   442.572
919.818   655.914   441.573   510.512
919.939   562.874   348.300   423.429
920.060   651.848   438.707   513.252
920.181   572.591   361.943   432.352
920.302   666.698   453.740   525.429
920.423   588.081   376.767   450.429
920.545   664.464   455.923   527.572
920.666   591.828   384.823   459.082
920.787   651.958   445.660   519.659
920.908   554.534   352.853   423.655
921.029   643.641   438.353   509.402
921.150   584.874   380.240   451.192
921.271   635.444   433.177   505.145
921.392   547.411   348.867   420.082
921.513   628.154   428.107   499.159
921.634   575.854   378.070   448.602
921.755   619.384   423.587   494.955
921.877   558.864   365.307   433.672
921.998   632.501   438.367   508.252
922.119   540.714   350.150   419.515
922.240   630.944   439.767   510.355
922.361   541.661   358.443   424.819
922.482   620.228   434.603   505.422
922.603   588.671   403.570   473.205
922.724   598.734   415.883   482.962
922.845   541.271   363.263   431.269
922.966   610.131   430.167   499.249
923.086   506.114   330.407   397.392
923.207   604.914   426.040   494.169
923.328   520.271   345.030   410.389
923.449   598.331   424.993   491.225
923.570   513.418   342.630   407.965
923.691   600.521   426.930   493.215
923.812   529.131   356.993   422.949
923.933   568.878   398.730   463.419
924.054   503.904   335.360   402.009
924.175   611.261   444.293   508.222
924.296   492.204   325.833   391.612
924.416   589.288   422.167   488.715
924.537   526.744   362.987   425.275
924.658   573.688   411.257   473.499
924.779   501.731   343.643   403.175
924.900   595.741   438.020   499.165
925.021   510.841   351.337   417.055
925.141   576.301   414.333   476.582
925.262   494.888   330.950   394.332
925.383   559.441   399.207   460.852
925.504   510.851   352.793   414.402
925.625   611.041   454.437   515.205
925.745   546.528   393.523   454.565
925.866   577.291   424.943   485.129
925.987   513.261   360.743   420.329
926.108   576.064   422.980   486.149
926.228   517.198   370.930   431.259
926.349   565.591   419.493   478.195
926.470   510.341   363.033   422.379
926.591   575.354   429.280   487.842
926.711   483.818   338.570   399.042
926.832   575.904   431.967   489.769
926.953   497.914   355.963   411.609
927.073   587.151   441.833   498.649
927.194   487.064   340.420   398.655
927.315   569.484   421.263   480.162
927.435   494.738   347.837   406.929
927.556   583.364   431.507   488.285
927.677   507.601   355.300   412.559
927.797   588.818   435.697   493.369
927.918   509.874   355.170   412.102
928.038   606.334   447.083   503.272
928.159   530.838   367.973   426.129
928.280   553.408   393.547   449.869
928.400   515.281   353.590   410.142
928.521   620.008   454.663   509.162
928.641   508.208   341.640   401.339
928.762   611.224   443.623   499.112
928.882   538.734   369.233   423.885
929.003   605.491   434.963   491.782
929.123   510.658   335.347   391.419
929.244   586.724   412.830   468.279
929.365   523.301   348.883   404.202
929.485   609.698   436.927   490.719
929.606   521.148   343.623   400.782
929.726   590.214   409.770   464.982
929.846   510.481   324.753   380.289
929.967   588.918   405.840   461.815
930.087   541.548   356.523   413.029
930.208   600.534   416.980   471.725
930.328   539.564   351.143   406.245
930.449   594.048   402.120   456.682
930.569   506.698   316.817   371.605
930.690   608.241   420.717   472.629
930.810   523.641   332.943   388.129
930.930   577.381   385.123   438.175
931.051   557.394   362.400   418.145
931.171   606.751   408.650   462.542
931.292   551.361   351.620   404.092
931.412   606.771   404.573   458.859
931.532   525.921   325.323   377.892
931.653   612.591   413.197   466.932
931.773   550.348   352.257   406.642
931.893   618.018   414.890   466.975
932.014   534.131   330.387   383.522
932.134   612.641   407.507   460.135
932.254   537.464   332.453   383.399
932.375   622.001   413.413   464.602
932.495   564.111   355.407   407.199
932.615   626.484   415.737   467.835
932.735   536.928   327.127   379.762
932.856   661.261   448.927   499.559
932.976   562.541   348.930   401.832
933.096   638.021   423.803   476.035
933.216   562.931   349.403   402.382
933.337   646.671   431.973   485.839
933.457   556.368   343.823   393.762
933.577   651.511   435.813   486.052
933.697   548.694   328.363   378.852
933.818   643.418   422.707   474.655
933.938   569.274   350.303   404.205
934.058   637.084   416.140   469.402
934.178   558.418   340.007   390.045
934.298   636.344   412.337   463.529
934.418   549.424   322.923   375.452
934.539   631.151   406.733   458.165
934.659   556.461   329.937   382.265
934.779   638.574   410.283   460.615
934.899   544.961   316.537   368.125
935.019   657.578   429.827   479.775
935.139   611.971   383.993   434.265
935.259   619.714   389.670   441.892
935.379   585.361   355.407   406.849
935.500   663.684   436.660   485.189
935.620   585.231   357.920   409.625
935.740   657.981   435.483   484.735
935.860   565.811   339.523   389.812
935.980   653.498   424.523   472.609
936.100   571.241   341.507   395.229
936.220   646.421   419.657   470.272
936.340   567.464   344.490   394.635
936.460   630.211   407.477   459.829
936.580   556.451   338.917   388.515
936.700   639.944   420.070   472.725
936.820   546.794   327.287   380.239
936.940   625.044   409.307   457.999
937.060   592.834   372.510   423.172
937.180   659.774   442.387   494.222
937.300   570.838   353.613   405.165
937.420   626.931   408.253   458.279
937.540   564.938   344.730   396.135
937.659   631.464   410.577   459.205
937.779   544.371   324.610   374.912
937.899   646.794   429.980   479.602
938.019   546.331   329.800   380.375
938.139   650.348   432.887   480.425
938.259   563.044   345.617   396.969
938.379   663.474   443.843   492.769
938.499   581.101   358.103   409.259
938.619   661.928   441.743   489.585
938.738   547.968   327.817   377.835
938.858   663.324   440.553   490.442
938.978   564.194   343.873   393.622
939.098   656.571   437.983   486.689
939.218   574.191   356.727   405.512
939.338   654.868   439.173   487.759
939.457   567.151   351.643   400.832
939.577   654.141   436.903   488.459
939.697   586.338   370.073   418.695
939.817   625.614   410.547   457.099
939.936   571.241   360.000   405.062
940.056   651.424   430.930   480.069
940.176   573.078   354.103   402.022
940.296   658.914   441.257   488.655
940.415   585.414   366.397   413.315
940.535   669.471   444.230   493.629
940.655   609.121   385.597   434.752
940.775   650.284   430.303   475.449
940.894   566.384   345.917   396.042
941.014   667.058   446.517   495.162
941.134   564.768   343.823   390.922
941.253   669.764   438.233   487.299
941.373   620.908   392.073   438.042
941.493   679.151   449.030   495.219
941.612   604.354   371.563   420.445
941.732   634.764   406.320   454.522
941.852   600.068   369.927   416.192
941.971   670.934   437.807   483.905
942.091   576.894   343.700   389.539
942.210   696.324   463.430   510.355
942.330   586.998   354.567   398.765
942.450   702.244   463.110   511.269
942.569   603.088   367.903   414.112
942.689   662.668   426.083   472.449
942.808   604.678   368.470   413.345
942.928   709.381   469.097   512.995
943.047   622.484   381.140   429.649
943.167   676.554   430.333   476.129
943.286   628.728   380.560   427.572
943.406   694.198   444.733   493.735
943.525   611.441   362.213   409.962
943.645   702.411   454.987   502.399
943.764   637.398   387.627   434.089
943.884   664.688   416.163   463.932
944.003   614.124   371.177   414.815
944.123   699.711   452.207   495.112
944.242   627.158   380.710   425.989
944.362   718.611   472.007   519.115
944.481   635.018   387.163   430.235
944.601   690.454   439.617   483.015
944.720   605.798   354.240   396.565
944.839   695.478   443.470   489.679
944.959   596.924   349.000   393.195
945.078   707.891   459.570   506.205
945.198   604.484   358.473   404.419
945.317   721.104   474.043   520.425
945.436   618.701   377.907   421.285
945.556   685.174   446.127   491.972
945.675   629.071   395.703   439.169
945.794   675.458   441.977   488.052
945.914   586.681   358.270   403.665
946.033   702.934   477.060   520.409
946.152   573.974   352.153   395.542
946.272   682.291   456.480   498.662
946.391   594.108   374.340   419.335
946.510   672.974   454.423   498.385
946.629   576.294   361.530   405.559
946.749   647.781   438.520   482.825
946.868   589.764   381.367   425.879
946.987   659.621   454.910   497.422
947.107   573.448   367.670   413.619
947.226   613.158   409.407   453.742
947.345   553.261   349.780   392.772
947.464   666.788   463.647   506.812
947.583   555.271   352.477   395.615
947.703   629.348   425.950   468.462
947.822   576.501   375.283   418.915
947.941   640.368   434.677   479.845
948.060   572.131   367.070   411.089
948.179   659.224   453.380   497.582
948.299   551.528   350.700   394.285
948.418   662.431   456.623   500.089
948.537   533.941   330.817   374.495
948.656   636.231   435.703   478.855
948.775   575.378   376.843   420.105
948.894   608.158   414.630   457.105
949.013   566.101   374.300   417.095
949.132   625.541   432.870   476.632
949.251   566.878   378.630   421.719
949.371   623.054   437.320   479.852
949.490   536.111   349.257   390.595
949.609   650.321   462.700   504.719
949.728   527.188   344.803   384.942
949.847   613.188   426.173   472.359
949.966   554.188   372.070   412.172
950.085   596.921   417.290   457.989
950.204   522.334   342.537   383.782
950.323   635.968   459.437   502.159
950.442   526.934   346.443   389.492
950.561   614.698   437.567   480.279
950.680   532.904   361.407   401.275
950.799   588.424   417.410   457.915
950.918   539.554   367.470   408.735
951.037   610.141   432.760   477.902
951.156   526.864   355.090   397.055
951.275   589.984   415.697   455.872
951.394   524.641   349.740   392.025
951.513   597.924   426.220   469.739
951.631   521.424   371.670   409.082
951.750   482.978   426.053   438.342
951.869   375.608   364.613   364.069
951.988   413.561   409.840   409.805
952.107   325.058   321.533   320.752
952.226   425.938   424.650   423.429
952.345   329.274   324.963   323.365
952.464   405.904   402.150   399.452
952.583   368.194   368.363   366.382
952.701   417.821   415.953   415.442
952.820   337.928   335.337   334.345
952.939   433.974   431.780   428.622
953.058   322.554   318.213   318.285
953.177   425.678   423.963   423.332
953.295   335.018   332.037   328.292
953.414   406.198   402.180   400.705
953.533   316.204   314.990   314.092
953.652   410.044   409.913   407.882
953.771   353.034   348.927   346.375
953.889   398.198   398.607   394.385
954.008   364.068   357.667   356.999
954.127   422.808   419.570   418.052
954.245   350.981   346.747   346.919
954.364   439.011   436.453   434.245
954.483   349.784   345.560   343.772
954.602   425.298   423.710   422.232
954.720   328.528   323.620   320.239
954.839   449.098   442.063   439.762
954.958   349.728   348.930   346.022
955.076   403.281   397.310   396.795
955.195   368.584   362.893   362.309
955.196   368.584   362.893   362.309
955.197   368.584   362.893   362.309